{
  "AcquisitionMatrixPE": 64,
  "AcquisitionNumber": 1,
  "AcquisitionTime": "10:30:16.055000",
  "BaseResolution": 64,
  "CoilString": "C:HEA;HEP;NEP",
  "ConversionSoftware": "dcm2niix",
  "ConversionSoftwareVersion": "v1.0.20190410  GCC6.3.0",
  "DeviceSerialNumber": "51066",
  "DwellTime": 3e-05,
  "EchoNumber": 2,
  "EchoTime": 0.00738,
  "EchoTime1": 0.00492,
  "EchoTime2": 0.00738,
  "FlipAngle": 60,
  "ImageOrientationPatientDICOM": [0.99987, 0.000672762, 0.0160939, 2.0498e-10, 0.999127, -0.0417658],
  "ImageType": [
    "ORIGINAL",
    "PRIMARY",
    "P",
    "ND"
],
  "ImagingFrequency": 123.24,
  "InPlanePhaseEncodingDirectionDICOM": "ROW",
  "InstitutionAddress": "Blackburn_Road_770_Clayton_Victoria_AU_3168",
  "InstitutionName": "Monash_Biomedical_Imaging",
  "InstitutionalDepartmentName": "Department",
  "MRAcquisitionType": "2D",
  "MagneticFieldStrength": 3,
  "Manufacturer": "Siemens",
  "ManufacturersModelName": "Biograph_mMR",
  "Modality": "MR",
  "PartialFourier": 1,
  "PatientPosition": "HFS",
  "PercentPhaseFOV": 100,
  "PhaseEncodingDirection": "i",
  "PhaseEncodingSteps": 64,
  "PhaseResolution": 1,
  "PixelBandwidth": 260,
  "ProcedureStepDescription": "MR-PET_Scan",
  "ProtocolName": "gre_field_mapping",
  "PulseSequenceDetails": "%SiemensSeq%_gre_field_mapping",
  "ReceiveCoilName": "HeadNeck_MRPET",
  "ReconMatrixPE": 64,
  "RepetitionTime": 0.466,
  "SAR": 0.107855,
  "ScanningSequence": "GR",
  "SequenceName": "_fm2d2r",
  "SequenceVariant": "SP",
  "SeriesDescription": "gre_field_mapping",
  "SeriesNumber": 16,
  "ShimSetting": [-8349, -954, -4033, 281, -355, 240, -755, -196],
  "SliceThickness": 3,
  "SliceTiming": [0.000705, -0.001, -0.001, -0.001, -0.001, -0.001, -0.001, -0.001, -0.001, -0.001, -0.001, -0.001, -0.001, -0.001, -0.001, -0.001, -0.001, -0.001, -0.001, -0.001, -0.001, -0.001, -0.001, -0.001, -0.001, -0.001, -0.001, -0.001, -0.001, -0.001, -0.001, -0.001, -0.001, -0.001, -0.001, -0.001, -0.001, -0.001, -0.001, -0.001, -0.001, -0.001, -0.001, -0.001],
  "SoftwareVersions": "syngo_MR_B20P",
  "SpacingBetweenSlices": 3,
  "StationName": "MRC51066",
  "TxRefAmp": 293.674,
  "dcmmeta_affine": [
    [-2.968364715576172, 6.085343895456674e-10, 0.0483241081237793, 100.10932922363281],
    [-0.001997260842472315, 2.9661595821380615, -0.12528038024902344, -73.65076446533203],
    [0.04777876287698746, 0.12399224936962128, 2.9969940185546875, -90.41607666015625],
    [0.0, 0.0, 0.0, 1.0]
],
  "dcmmeta_reorient_transform": [
    [0.0, -1.0, 0.0, 63.0],
    [1.0, 0.0, 0.0, 0.0],
    [0.0, 0.0, -1.0, 43.0],
    [0.0, 0.0, 0.0, 1.0]
],
  "dcmmeta_shape": [64, 64, 44],
  "dcmmeta_slice_dim": 2,
  "dcmmeta_version": 0.6,
  "global": {
    "const": {
      "AcquisitionMatrix": [0, 64, 64, 0],
      "AcquisitionNumber": 1,
      "Allergies": "None",
      "AngioFlag": "N",
      "BitsAllocated": 16,
      "BitsStored": 12,
      "Columns": 64,
      "EchoNumbers": 2,
      "EchoTime": 7.38,
      "EchoTrainLength": 1,
      "FlipAngle": 60.0,
      "HighBit": 11,
      "ImageOrientationPatient": [0.99987025848885, 0.00067276153819, 0.01609389888627, 2.0498e-10, 0.99912742789983, -0.0417658092017],
      "ImageType": [
        "ORIGINAL",
        "PRIMARY",
        "P",
        "ND"
],
      "ImagedNucleus": "1H",
      "ImagingFrequency": 123.239825,
      "InPlanePhaseEncodingDirection": "ROW",
      "MRAcquisitionType": "2D",
      "MagneticFieldStrength": 3.0,
      "Manufacturer": "SIEMENS",
      "ManufacturerModelName": "Biograph_mMR",
      "MedicalAlerts": "None",
      "Modality": "MR",
      "NumberOfAverages": 1.0,
      "NumberOfPhaseEncodingSteps": 64,
      "PercentPhaseFieldOfView": 100.0,
      "PercentSampling": 100.0,
      "PerformedProcedureStepStartTime": "100055.464000",
      "PhotometricInterpretation": "MONOCHROME2",
      "PixelBandwidth": 260.0,
      "PixelRepresentation": 0,
      "PixelSpacing": [2.96875, 2.96875],
      "PregnancyStatus": 4,
      "ProtocolName": "gre_field_mapping",
      "RepetitionTime": 466.0,
      "RequestAttributesSequence": [
        {
          "RequestedProcedureID": "MMH001",
          "ScheduledProcedureStepDescription": "MR-PET Scan",
          "ScheduledProcedureStepID": "001"}
],
      "RescaleIntercept": -4096.0,
      "RescaleSlope": 2.0,
      "RescaleType": "US",
      "Rows": 64,
      "SAR": 0.10785497997534,
      "SamplesPerPixel": 1,
      "ScanningSequence": "GR",
      "SequenceName": "*fm2d2r",
      "SequenceVariant": "SP",
      "SeriesDescription": "gre_field_mapping",
      "SeriesNumber": 16,
      "SeriesTime": "103115.887000",
      "SliceThickness": 3.0,
      "SoftwareVersions": "syngo MR B20P",
      "SpacingBetweenSlices": 3.0,
      "SpecificCharacterSet": "ISO_IR 100",
      "StudyID": "MMH001",
      "StudyTime": "100055.370000",
      "TransmitCoilName": "Body",
      "VariableFlipAngleFlag": "N",
      "WindowCenterWidthExplanation": "Algo1",
      "dBdt": 0.0},
    "slices": {
      "AcquisitionTime": ["103016.055000", "103015.822500", "103016.067500", "103015.832500", "103016.077500", "103015.842500", "103016.087500", "103015.855000", "103016.097500", "103015.865000", "103016.110000", "103015.875000", "103016.120000", "103015.885000", "103016.130000", "103015.897500", "103016.140000", "103015.907500", "103016.152500", "103015.917500", "103016.162500", "103015.927500", "103016.172500", "103015.940000", "103016.182500", "103015.950000", "103016.195000", "103015.960000", "103016.205000", "103015.970000", "103016.215000", "103015.982500", "103016.225000", "103015.992500", "103016.237500", "103016.002500", "103016.247500", "103016.012500", "103016.257500", "103016.025000", "103016.267500", "103016.035000", "103016.280000", "103016.045000"],
      "ContentTime": ["103115.934000", "103115.887000", "103115.934000", "103115.887000", "103115.934000", "103115.887000", "103115.934000", "103115.887000", "103115.950000", "103115.903000", "103115.950000", "103115.903000", "103115.950000", "103115.903000", "103115.950000", "103115.903000", "103115.950000", "103115.903000", "103115.950000", "103115.903000", "103115.950000", "103115.918000", "103115.950000", "103115.918000", "103115.950000", "103115.918000", "103115.950000", "103115.918000", "103115.950000", "103115.918000", "103115.965000", "103115.918000", "103115.965000", "103115.918000", "103115.965000", "103115.918000", "103115.965000", "103115.918000", "103115.965000", "103115.918000", "103115.965000", "103115.918000", "103115.965000", "103115.934000"],
      "CsaImage.ICE_Dims": [
        "X_2_1_1_1_1_1_23_1_1_1_1_55",
        "X_2_1_1_1_1_1_1_1_1_2_1_55",
        "X_2_1_1_1_1_1_24_1_1_3_1_55",
        "X_2_1_1_1_1_1_2_1_1_4_1_55",
        "X_2_1_1_1_1_1_25_1_1_5_1_55",
        "X_2_1_1_1_1_1_3_1_1_6_1_55",
        "X_2_1_1_1_1_1_26_1_1_7_1_55",
        "X_2_1_1_1_1_1_4_1_1_8_1_55",
        "X_2_1_1_1_1_1_27_1_1_9_1_55",
        "X_2_1_1_1_1_1_5_1_1_10_1_55",
        "X_2_1_1_1_1_1_28_1_1_11_1_55",
        "X_2_1_1_1_1_1_6_1_1_12_1_55",
        "X_2_1_1_1_1_1_29_1_1_13_1_55",
        "X_2_1_1_1_1_1_7_1_1_14_1_55",
        "X_2_1_1_1_1_1_30_1_1_15_1_55",
        "X_2_1_1_1_1_1_8_1_1_16_1_55",
        "X_2_1_1_1_1_1_31_1_1_17_1_55",
        "X_2_1_1_1_1_1_9_1_1_18_1_55",
        "X_2_1_1_1_1_1_32_1_1_19_1_55",
        "X_2_1_1_1_1_1_10_1_1_20_1_55",
        "X_2_1_1_1_1_1_33_1_1_21_1_55",
        "X_2_1_1_1_1_1_11_1_1_22_1_55",
        "X_2_1_1_1_1_1_34_1_1_23_1_55",
        "X_2_1_1_1_1_1_12_1_1_24_1_55",
        "X_2_1_1_1_1_1_35_1_1_25_1_55",
        "X_2_1_1_1_1_1_13_1_1_26_1_55",
        "X_2_1_1_1_1_1_36_1_1_27_1_55",
        "X_2_1_1_1_1_1_14_1_1_28_1_55",
        "X_2_1_1_1_1_1_37_1_1_29_1_55",
        "X_2_1_1_1_1_1_15_1_1_30_1_55",
        "X_2_1_1_1_1_1_38_1_1_31_1_55",
        "X_2_1_1_1_1_1_16_1_1_32_1_55",
        "X_2_1_1_1_1_1_39_1_1_33_1_55",
        "X_2_1_1_1_1_1_17_1_1_34_1_55",
        "X_2_1_1_1_1_1_40_1_1_35_1_55",
        "X_2_1_1_1_1_1_18_1_1_36_1_55",
        "X_2_1_1_1_1_1_41_1_1_37_1_55",
        "X_2_1_1_1_1_1_19_1_1_38_1_55",
        "X_2_1_1_1_1_1_42_1_1_39_1_55",
        "X_2_1_1_1_1_1_20_1_1_40_1_55",
        "X_2_1_1_1_1_1_43_1_1_41_1_55",
        "X_2_1_1_1_1_1_21_1_1_42_1_55",
        "X_2_1_1_1_1_1_44_1_1_43_1_55",
        "X_2_1_1_1_1_1_22_1_1_44_1_55"
],
      "CsaImage.ProtocolSliceNumber": [0, 1, 2, 3, 4, 5, 6, 7, 8, 9, 10, 11, 12, 13, 14, 15, 16, 17, 18, 19, 20, 21, 22, 23, 24, 25, 26, 27, 28, 29, 30, 31, 32, 33, 34, 35, 36, 37, 38, 39, 40, 41, 42, 43],
      "CsaImage.SliceMeasurementDuration": [58952.5, 58952.5, 58950.0, 58952.5, 58952.5, 58952.5, 58952.5, 58950.0, 58952.5, 58952.5, 58950.0, 58952.5, 58952.5, 58952.5, 58952.5, 58950.0, 58952.5, 58952.5, 58950.0, 58952.5, 58952.5, 58952.5, 58952.5, 58950.0, 58952.5, 58952.5, 58950.0, 58952.5, 58952.5, 58952.5, 58952.5, 58950.0, 58952.5, 58952.5, 58950.0, 58952.5, 58952.5, 58952.5, 58952.5, 58950.0, 58952.5, 58952.5, 58950.0, 58952.5],
      "CsaImage.SlicePosition_PCS": [
        [-100.10934148, -113.21731942, -49.60453781],
        [-100.15766512, -113.09203713, -46.60754379],
        [-100.20598922, -112.96675675, -43.61054978],
        [-100.25431285, -112.84147446, -40.61355957],
        [-100.30263696, -112.71619408, -37.61656555],
        [-100.35096059, -112.5909137, -34.61957154],
        [-100.3992847, -112.46563142, -31.62257752],
        [-100.44760833, -112.34035103, -28.6255835],
        [-100.49593244, -112.21506875, -25.62859139],
        [-100.54425607, -112.08978837, -22.63159737],
        [-100.59258018, -111.96450608, -19.63460335],
        [-100.64090381, -111.8392257, -16.63761124],
        [-100.68922744, -111.71394532, -13.64061722],
        [-100.73755155, -111.58866303, -10.64362416],
        [-100.78587518, -111.46338265, -7.64663014],
        [-100.83419929, -111.33810036, -4.64963707],
        [-100.88252292, -111.21281998, -1.65264353],
        [-100.93084703, -111.0875396, 1.34434977],
        [-100.97917066, -110.96225732, 4.34134308],
        [-101.02749477, -110.83697598, 7.33833662],
        [-101.0758184, -110.7116956, 10.33532968],
        [-101.12414251, -110.58641427, 13.33232322],
        [-101.17246614, -110.46113293, 16.32931629],
        [-101.22079025, -110.3358516, 19.32630935],
        [-101.26911388, -110.21057027, 22.32330337],
        [-101.31743799, -110.08528893, 25.32029739],
        [-101.36576162, -109.96000855, 28.3172895],
        [-101.41408573, -109.83472722, 31.31428352],
        [-101.46240936, -109.70944588, 34.31127754],
        [-101.51073347, -109.58416455, 37.30826965],
        [-101.5590571, -109.45888322, 40.30526367],
        [-101.60738121, -109.33360188, 43.30225769],
        [-101.65570484, -109.2083215, 46.29925171],
        [-101.70402895, -109.08304017, 49.29624573],
        [-101.75235258, -108.95775883, 52.29323593],
        [-101.80067669, -108.8324775, 55.29022995],
        [-101.84900032, -108.70719617, 58.28722397],
        [-101.89732442, -108.58191579, 61.28421799],
        [-101.94564806, -108.45663445, 64.281212],
        [-101.99397216, -108.33135312, 67.27820221],
        [-102.0422958, -108.20607178, 70.27519623],
        [-102.0906199, -108.08079045, 73.27219024],
        [-102.13894353, -107.95550912, 76.26918426],
        [-102.18726764, -107.83022874, 79.26617828]
],
      "CsaImage.TimeAfterStart": [0.705, 0.47, 0.715, 0.4825, 0.725, 0.4925, 0.7375, 0.5025, 0.7475, 0.5125, 0.7575, 0.525, 0.7675, 0.535, 0.78, 0.545, 0.79, 0.555, 0.8, 0.5675, 0.81, 0.5775, 0.8225, 0.5875, 0.8325, 0.5975, 0.8425, 0.61, 0.8525, 0.62, 0.865, 0.63, 0.875, 0.64, 0.885, 0.6525, 0.895, 0.6625, 0.9075, 0.6725, 0.9175, 0.6825, 0.9275, 0.695],
      "ImagePositionPatient": [
        [-100.10934148418, -113.21731941873, -82.604537813246],
        [-100.15766511546, -113.09203713113, -79.607543794691],
        [-100.20598922359, -112.96675675088, -76.610549776136],
        [-100.25431285488, -112.84147446329, -73.613559572279],
        [-100.302636963, -112.71619408304, -70.616565553724],
        [-100.35096059429, -112.59091370279, -67.619571535169],
        [-100.39928470241, -112.46563141519, -64.622577516615],
        [-100.4476083337, -112.34035103494, -61.62558349806],
        [-100.49593244182, -112.21506874734, -58.628591386854],
        [-100.54425607311, -112.0897883671, -55.631597368299],
        [-100.59258018123, -111.9645060795, -52.634603349745],
        [-100.64090381252, -111.83922569925, -49.637611238539],
        [-100.6892274438, -111.713945319, -46.640617219984],
        [-100.73755155193, -111.5886630314, -43.643624155104],
        [-100.78587518321, -111.46338265115, -40.646630136549],
        [-100.83419929134, -111.33810036356, -37.649637071668],
        [-100.88252292262, -111.21281998331, -34.652643529951],
        [-100.93084703075, -111.08753960306, -31.655650226652],
        [-100.97917066203, -110.96225731546, -28.658656923353],
        [-101.02749477016, -110.83697598154, -25.661663381636],
        [-101.07581840144, -110.71169560129, -22.664670316755],
        [-101.12414250957, -110.58641426736, -19.667676775038],
        [-101.17246614086, -110.46113293344, -16.670683710157],
        [-101.22079024898, -110.33585159952, -13.673690645277],
        [-101.26911388027, -110.21057026559, -10.676696626722],
        [-101.31743798839, -110.08528893167, -7.6797026081675],
        [-101.36576161968, -109.96000855142, -4.6827104969614],
        [-101.4140857278, -109.8347272175, -1.6857164784067],
        [-101.46240935909, -109.70944588357, 1.3112775401479],
        [-101.51073346721, -109.58416454965, 4.308269651354],
        [-101.5590570985, -109.45888321573, 7.3052636699087],
        [-101.60738120662, -109.3336018818, 10.302257688463],
        [-101.65570483791, -109.20832150156, 13.299251707018],
        [-101.70402894603, -109.08304016763, 16.296245725573],
        [-101.75235257732, -108.95775883371, 19.29323592943],
        [-101.80067668544, -108.83247749979, 22.290229947985],
        [-101.84900031673, -108.70719616586, 25.28722396654],
        [-101.89732442485, -108.58191578561, 28.284217985094],
        [-101.94564805614, -108.45663445169, 31.281212003649],
        [-101.99397216426, -108.33135311777, 34.278202207506],
        [-102.04229579555, -108.20607178384, 37.275196226061],
        [-102.09061990367, -108.08079044992, 40.272190244616],
        [-102.13894353496, -107.955509116, 43.26918426317],
        [-102.18726764308, -107.83022873575, 46.266178281725]
],
      "InstanceCreationTime": ["103115.934000", "103115.887000", "103115.934000", "103115.887000", "103115.934000", "103115.887000", "103115.934000", "103115.887000", "103115.950000", "103115.903000", "103115.950000", "103115.903000", "103115.950000", "103115.903000", "103115.950000", "103115.903000", "103115.950000", "103115.903000", "103115.950000", "103115.903000", "103115.950000", "103115.918000", "103115.950000", "103115.918000", "103115.950000", "103115.918000", "103115.950000", "103115.918000", "103115.950000", "103115.918000", "103115.965000", "103115.918000", "103115.965000", "103115.918000", "103115.965000", "103115.918000", "103115.965000", "103115.918000", "103115.965000", "103115.918000", "103115.965000", "103115.918000", "103115.965000", "103115.934000"],
      "InstanceNumber": [1, 2, 3, 4, 5, 6, 7, 8, 9, 10, 11, 12, 13, 14, 15, 16, 17, 18, 19, 20, 21, 22, 23, 24, 25, 26, 27, 28, 29, 30, 31, 32, 33, 34, 35, 36, 37, 38, 39, 40, 41, 42, 43, 44],
      "LargestImagePixelValue": [4081, 4092, 4094, 4093, 4090, 4092, 4094, 4094, 4093, 4089, 4085, 4091, 4085, 4094, 4086, 4093, 4093, 4065, 4084, 4075, 4063, 4087, 4035, 4077, 4084, 4069, 4060, 4045, 4090, 4094, 4086, 4064, 4088, 4077, 4094, 4080, 4094, 4093, 4094, 4089, 4086, 4093, 4094, 4073],
      "SliceLocation": [-85.637194285805, -82.637193623776, -79.637193033717, -76.637196182561, -73.637195592503, -70.637195010125, -67.637194340414, -64.637193758036, -61.637194993763, -58.637194411385, -55.637193741675, -52.637195064734, -49.637194482356, -46.637194765364, -43.637194182986, -40.637194465994, -37.637194359976, -34.637194484456, -31.637194536965, -28.63719438344, -25.63719475378, -22.637194600255, -19.63719493077, -16.637195253604, -13.6371946314, -10.637194001515, -7.6371953245744, -4.6371946946898, -1.6371940724861, 1.3628046519614, 4.3628052741652, 7.3628059040498, 10.362806486428, 13.362807116312, 16.362803927642, 19.362804557527, 22.36280517973, 25.362805769789, 28.362806391993, 31.362803211003, 34.362803833207, 37.362804463092, 40.362805085295, 43.362805675354],
      "SmallestImagePixelValue": [1, 1, 5, 0, 1, 1, 7, 1, 2, 10, 0, 0, 0, 4, 3, 3, 19, 7, 4, 24, 4, 41, 9, 5, 1, 40, 3, 10, 14, 4, 0, 7, 2, 9, 2, 8, 1, 5, 2, 1, 0, 5, 10, 3],
      "WindowCenter": [-234.0, -212.0, -232.0, -138.0, -116.0, -64.0, -30.0, -116.0, -190.0, -238.0, -202.0, -224.0, -218.0, -260.0, -226.0, -222.0, -174.0, -216.0, -160.0, -252.0, -246.0, -144.0, -222.0, -224.0, -72.0, -182.0, -178.0, -162.0, -148.0, -156.0, -144.0, -144.0, -136.0, -146.0, -174.0, -170.0, -204.0, -248.0, -266.0, -140.0, -190.0, -200.0, -232.0, -244.0],
      "WindowWidth": [6010.0, 6060.0, 6016.0, 6116.0, 6068.0, 6028.0, 5950.0, 5866.0, 5722.0, 5604.0, 5540.0, 5446.0, 5460.0, 5424.0, 5410.0, 5282.0, 5424.0, 4898.0, 5036.0, 4578.0, 4570.0, 4814.0, 4544.0, 4548.0, 5064.0, 4516.0, 4520.0, 4520.0, 4516.0, 4520.0, 4512.0, 4520.0, 4528.0, 4532.0, 4580.0, 4592.0, 4616.0, 4656.0, 4692.0, 5262.0, 5580.0, 5750.0, 5906.0, 6016.0]
    }
  }
}