{
  "AcquisitionMatrixPE": 64,
  "AcquisitionNumber": 1,
  "AcquisitionTime": "12:44:21.277500",
  "BaseResolution": 64,
  "CoilString": "C:HEA;HEP;NEP",
  "ConversionSoftware": "dcm2niix",
  "ConversionSoftwareVersion": "v1.0.20190410  GCC6.3.0",
  "DeviceSerialNumber": "51066",
  "DwellTime": 3e-05,
  "EchoNumber": 2,
  "EchoTime": 0.00738,
  "EchoTime1": 0.00492,
  "EchoTime2": 0.00738,
  "FlipAngle": 60,
  "ImageOrientationPatientDICOM": [0.999601, 0.0022135, 0.0281555, 2.48284e-10, 0.996924, -0.0783752],
  "ImageType": [
    "ORIGINAL",
    "PRIMARY",
    "P",
    "ND"
],
  "ImagingFrequency": 123.24,
  "InPlanePhaseEncodingDirectionDICOM": "ROW",
  "InstitutionAddress": "Blackburn_Road_770_Clayton_Victoria_AU_3168",
  "InstitutionName": "Monash_Biomedical_Imaging",
  "InstitutionalDepartmentName": "Department",
  "MRAcquisitionType": "2D",
  "MagneticFieldStrength": 3,
  "Manufacturer": "Siemens",
  "ManufacturersModelName": "Biograph_mMR",
  "Modality": "MR",
  "PartialFourier": 1,
  "PatientPosition": "HFS",
  "PercentPhaseFOV": 100,
  "PhaseEncodingDirection": "i",
  "PhaseEncodingSteps": 64,
  "PhaseResolution": 1,
  "PixelBandwidth": 260,
  "ProcedureStepDescription": "MR-PET_Scan",
  "ProtocolName": "Head_gre_field_mapping",
  "PulseSequenceDetails": "%SiemensSeq%_gre_field_mapping",
  "ReceiveCoilName": "HeadNeck_MRPET",
  "ReconMatrixPE": 64,
  "RepetitionTime": 0.466,
  "SAR": 0.115048,
  "ScanningSequence": "GR",
  "SequenceName": "_fm2d2r",
  "SequenceVariant": "SP",
  "SeriesDescription": "Head_gre_field_mapping",
  "SeriesNumber": 13,
  "ShimSetting": [-8366, -994, -3833, 622, -312, 219, -125, -116],
  "SliceThickness": 3,
  "SliceTiming": [0.000705, -0.001, -0.001, -0.001, -0.001, -0.001, -0.001, -0.001, -0.001, -0.001, -0.001, -0.001, -0.001, -0.001, -0.001, -0.001, -0.001, -0.001, -0.001, -0.001, -0.001, -0.001, -0.001, -0.001, -0.001, -0.001, -0.001, -0.001, -0.001, -0.001, -0.001, -0.001, -0.001, -0.001, -0.001, -0.001, -0.001, -0.001, -0.001, -0.001, -0.001, -0.001, -0.001, -0.001],
  "SoftwareVersions": "syngo_MR_B20P",
  "SpacingBetweenSlices": 3,
  "StationName": "MRC51066",
  "TxRefAmp": 307.972,
  "dcmmeta_affine": [
    [-2.9675657749176025, 7.370931087713473e-10, 0.08472728729248047, 95.57295227050781],
    [-0.006571328733116388, 2.959617853164673, -0.2350311279296875, -71.95687103271484],
    [0.08358661085367203, 0.23267631232738495, 2.9895782470703125, -57.820011138916016],
    [0.0, 0.0, 0.0, 1.0]
],
  "dcmmeta_reorient_transform": [
    [0.0, -1.0, 0.0, 63.0],
    [1.0, 0.0, 0.0, 0.0],
    [0.0, 0.0, -1.0, 43.0],
    [0.0, 0.0, 0.0, 1.0]
],
  "dcmmeta_shape": [64, 64, 44],
  "dcmmeta_slice_dim": 2,
  "dcmmeta_version": 0.6,
  "global": {
    "const": {
      "AcquisitionMatrix": [0, 64, 64, 0],
      "AcquisitionNumber": 1,
      "Allergies": "None",
      "AngioFlag": "N",
      "BitsAllocated": 16,
      "BitsStored": 12,
      "Columns": 64,
      "EchoNumbers": 2,
      "EchoTime": 7.38,
      "EchoTrainLength": 1,
      "FlipAngle": 60.0,
      "HighBit": 11,
      "ImageOrientationPatient": [0.99960110482489, 0.00221350016755, 0.0281554905811, 2.48284e-10, 0.99692393476263, -0.0783751765382],
      "ImageType": [
        "ORIGINAL",
        "PRIMARY",
        "P",
        "ND"
],
      "ImagedNucleus": "1H",
      "ImagingFrequency": 123.239608,
      "InPlanePhaseEncodingDirection": "ROW",
      "MRAcquisitionType": "2D",
      "MagneticFieldStrength": 3.0,
      "Manufacturer": "SIEMENS",
      "ManufacturerModelName": "Biograph_mMR",
      "MedicalAlerts": "None",
      "Modality": "MR",
      "NumberOfAverages": 1.0,
      "NumberOfPhaseEncodingSteps": 64,
      "PercentPhaseFieldOfView": 100.0,
      "PercentSampling": 100.0,
      "PerformedProcedureStepStartTime": "122821.874000",
      "PhotometricInterpretation": "MONOCHROME2",
      "PixelBandwidth": 260.0,
      "PixelRepresentation": 0,
      "PixelSpacing": [2.96875, 2.96875],
      "PregnancyStatus": 4,
      "ProtocolName": "Head_gre_field_mapping",
      "RepetitionTime": 466.0,
      "RequestAttributesSequence": [
        {
          "RequestedProcedureID": "MMH001",
          "ScheduledProcedureStepDescription": "MR-PET Scan",
          "ScheduledProcedureStepID": "001"}
],
      "RescaleIntercept": -4096.0,
      "RescaleSlope": 2.0,
      "RescaleType": "US",
      "Rows": 64,
      "SAR": 0.11504809330268,
      "SamplesPerPixel": 1,
      "ScanningSequence": "GR",
      "SequenceName": "*fm2d2r",
      "SequenceVariant": "SP",
      "SeriesDescription": "Head_gre_field_mapping",
      "SeriesNumber": 13,
      "SeriesTime": "124521.664000",
      "SliceThickness": 3.0,
      "SoftwareVersions": "syngo MR B20P",
      "SpacingBetweenSlices": 3.0,
      "SpecificCharacterSet": "ISO_IR 100",
      "StudyID": "MMH001",
      "StudyTime": "122821.843000",
      "TransmitCoilName": "Body",
      "VariableFlipAngleFlag": "N",
      "WindowCenterWidthExplanation": "Algo1",
      "dBdt": 0.0},
    "slices": {
      "AcquisitionTime": ["124421.277500", "124421.045000", "124421.287500", "124421.055000", "124421.300000", "124421.065000", "124421.310000", "124421.075000", "124421.320000", "124421.087500", "124421.330000", "124421.097500", "124421.342500", "124421.107500", "124421.352500", "124421.117500", "124421.362500", "124421.130000", "124421.372500", "124421.140000", "124421.385000", "124421.150000", "124421.395000", "124421.160000", "124421.405000", "124421.172500", "124421.417500", "124421.182500", "124421.427500", "124421.192500", "124421.437500", "124421.202500", "124421.447500", "124421.215000", "124421.460000", "124421.225000", "124421.470000", "124421.235000", "124421.480000", "124421.245000", "124421.490000", "124421.257500", "124421.502500", "124421.267500"],
      "ContentTime": ["124521.773000", "124521.664000", "124521.773000", "124521.742000", "124521.773000", "124521.742000", "124521.773000", "124521.742000", "124521.773000", "124521.742000", "124521.789000", "124521.742000", "124521.789000", "124521.742000", "124521.789000", "124521.757000", "124521.789000", "124521.757000", "124521.789000", "124521.757000", "124521.789000", "124521.757000", "124521.789000", "124521.757000", "124521.804000", "124521.757000", "124521.804000", "124521.757000", "124521.804000", "124521.757000", "124521.804000", "124521.773000", "124521.804000", "124521.773000", "124521.804000", "124521.773000", "124521.804000", "124521.773000", "124521.804000", "124521.773000", "124521.804000", "124521.773000", "124521.804000", "124521.773000"],
      "CsaImage.GSWDDataType": [
        "predicted",
        "predicted",
        "predicted",
        "predicted",
        "predicted",
        "predicted",
        "predicted",
        "predicted",
        "predicted",
        "predicted",
        "predicted",
        "predicted",
        "predicted",
        "predicted",
        "predicted",
        "predicted",
        "predicted",
        "predicted",
        "predicted",
        "predicted",
        "measured",
        "predicted",
        "measured",
        "predicted",
        "measured",
        "predicted",
        "measured",
        "predicted",
        "measured",
        "predicted",
        "measured",
        "predicted",
        "measured",
        "predicted",
        "measured",
        "predicted",
        "measured",
        "predicted",
        "measured",
        "predicted",
        "measured",
        "predicted",
        "measured",
        "predicted"
],
      "CsaImage.ICE_Dims": [
        "X_2_1_1_1_1_1_23_1_1_1_1_82",
        "X_2_1_1_1_1_1_1_1_1_2_1_82",
        "X_2_1_1_1_1_1_24_1_1_3_1_82",
        "X_2_1_1_1_1_1_2_1_1_4_1_82",
        "X_2_1_1_1_1_1_25_1_1_5_1_82",
        "X_2_1_1_1_1_1_3_1_1_6_1_82",
        "X_2_1_1_1_1_1_26_1_1_7_1_82",
        "X_2_1_1_1_1_1_4_1_1_8_1_82",
        "X_2_1_1_1_1_1_27_1_1_9_1_82",
        "X_2_1_1_1_1_1_5_1_1_10_1_82",
        "X_2_1_1_1_1_1_28_1_1_11_1_82",
        "X_2_1_1_1_1_1_6_1_1_12_1_82",
        "X_2_1_1_1_1_1_29_1_1_13_1_82",
        "X_2_1_1_1_1_1_7_1_1_14_1_82",
        "X_2_1_1_1_1_1_30_1_1_15_1_82",
        "X_2_1_1_1_1_1_8_1_1_16_1_82",
        "X_2_1_1_1_1_1_31_1_1_17_1_82",
        "X_2_1_1_1_1_1_9_1_1_18_1_82",
        "X_2_1_1_1_1_1_32_1_1_19_1_82",
        "X_2_1_1_1_1_1_10_1_1_20_1_82",
        "X_2_1_1_1_1_1_33_1_1_21_1_82",
        "X_2_1_1_1_1_1_11_1_1_22_1_82",
        "X_2_1_1_1_1_1_34_1_1_23_1_82",
        "X_2_1_1_1_1_1_12_1_1_24_1_82",
        "X_2_1_1_1_1_1_35_1_1_25_1_82",
        "X_2_1_1_1_1_1_13_1_1_26_1_82",
        "X_2_1_1_1_1_1_36_1_1_27_1_82",
        "X_2_1_1_1_1_1_14_1_1_28_1_82",
        "X_2_1_1_1_1_1_37_1_1_29_1_82",
        "X_2_1_1_1_1_1_15_1_1_30_1_82",
        "X_2_1_1_1_1_1_38_1_1_31_1_82",
        "X_2_1_1_1_1_1_16_1_1_32_1_82",
        "X_2_1_1_1_1_1_39_1_1_33_1_82",
        "X_2_1_1_1_1_1_17_1_1_34_1_82",
        "X_2_1_1_1_1_1_40_1_1_35_1_82",
        "X_2_1_1_1_1_1_18_1_1_36_1_82",
        "X_2_1_1_1_1_1_41_1_1_37_1_82",
        "X_2_1_1_1_1_1_19_1_1_38_1_82",
        "X_2_1_1_1_1_1_42_1_1_39_1_82",
        "X_2_1_1_1_1_1_20_1_1_40_1_82",
        "X_2_1_1_1_1_1_43_1_1_41_1_82",
        "X_2_1_1_1_1_1_21_1_1_42_1_82",
        "X_2_1_1_1_1_1_44_1_1_43_1_82",
        "X_2_1_1_1_1_1_22_1_1_44_1_82"
],
      "CsaImage.ProtocolSliceNumber": [0, 1, 2, 3, 4, 5, 6, 7, 8, 9, 10, 11, 12, 13, 14, 15, 16, 17, 18, 19, 20, 21, 22, 23, 24, 25, 26, 27, 28, 29, 30, 31, 32, 33, 34, 35, 36, 37, 38, 39, 40, 41, 42, 43],
      "CsaImage.RFSWDDataType": [
        "predicted",
        "predicted",
        "predicted",
        "predicted",
        "predicted",
        "predicted",
        "predicted",
        "predicted",
        "predicted",
        "predicted",
        "predicted",
        "predicted",
        "predicted",
        "predicted",
        "predicted",
        "predicted",
        "predicted",
        "predicted",
        "predicted",
        "predicted",
        "measured",
        "predicted",
        "measured",
        "predicted",
        "measured",
        "predicted",
        "measured",
        "predicted",
        "measured",
        "predicted",
        "measured",
        "predicted",
        "measured",
        "predicted",
        "measured",
        "predicted",
        "measured",
        "predicted",
        "measured",
        "predicted",
        "measured",
        "predicted",
        "measured",
        "predicted"
],
      "CsaImage.SliceMeasurementDuration": [58952.5, 58950.0, 58952.5, 58952.5, 58950.0, 58952.5, 58952.5, 58952.5, 58952.5, 58950.0, 58952.5, 58952.5, 58950.0, 58952.5, 58952.5, 58952.5, 58952.5, 58950.0, 58952.5, 58952.5, 58950.0, 58952.5, 58952.5, 58952.5, 58952.5, 58950.0, 58950.0, 58952.5, 58950.0, 58952.5, 58952.5, 58952.5, 58952.5, 58950.0, 58950.0, 58952.5, 58950.0, 58952.5, 58952.5, 58952.5, 58952.5, 58950.0, 58950.0, 58952.5],
      "CsaImage.SlicePosition_PCS": [
        [-95.57295663, -114.4990843, -43.16142277],
        [-95.65768374, -114.26405127, -40.17184453],
        [-95.74241078, -114.02902014, -37.18226628],
        [-95.82713789, -113.79398901, -34.19268803],
        [-95.911865, -113.55895598, -31.20310978],
        [-95.99659211, -113.32392485, -28.21353154],
        [-96.08131916, -113.08889372, -25.22395138],
        [-96.16604633, -112.85386069, -22.23437314],
        [-96.25077338, -112.61882956, -19.24479298],
        [-96.33550054, -112.38379843, -16.25521473],
        [-96.42022759, -112.1487673, -13.26563649],
        [-96.50495464, -111.91373427, -10.27605729],
        [-96.58968181, -111.67870314, -7.28647809],
        [-96.67440886, -111.44367201, -4.29689984],
        [-96.75913603, -111.20863898, -1.30732064],
        [-96.84386308, -110.97360785, 1.68225809],
        [-96.92859012, -110.73857577, 4.67183685],
        [-97.01331729, -110.50354464, 7.66141577],
        [-97.09804434, -110.26851256, 10.65099426],
        [-97.18277139, -110.03348047, 13.64057346],
        [-97.26749868, -109.79844935, 16.63015171],
        [-97.35222573, -109.56341727, 19.61973091],
        [-97.43695278, -109.32838518, 22.60931011],
        [-97.52167982, -109.09335406, 25.59888835],
        [-97.60640687, -108.85832197, 28.5884666],
        [-97.69113416, -108.62328989, 31.57804676],
        [-97.77586121, -108.38825876, 34.567625],
        [-97.86058826, -108.15322668, 37.55720516],
        [-97.94531531, -107.9181946, 40.5467834],
        [-98.03004236, -107.68316347, 43.53636165],
        [-98.11476964, -107.44813139, 46.5259399],
        [-98.19949669, -107.21310026, 49.51551815],
        [-98.28422374, -106.97806818, 52.50509639],
        [-98.36895079, -106.7430361, 55.49467464],
        [-98.45367784, -106.50800497, 58.4842567],
        [-98.53840513, -106.27297289, 61.47383495],
        [-98.62313218, -106.03794081, 64.4634132],
        [-98.70785922, -105.80290968, 67.45299144],
        [-98.79258627, -105.5678776, 70.44256969],
        [-98.87731332, -105.33284552, 73.43214794],
        [-98.96204061, -105.09781439, 76.42172618],
        [-99.04676742, -104.86278231, 79.41130443],
        [-99.13149471, -104.62775023, 82.40088268],
        [-99.21622199, -104.3927191, 85.39046093]
],
      "CsaImage.TimeAfterStart": [0.705, 0.47, 0.715, 0.48, 0.725, 0.4925, 0.735, 0.5025, 0.7475, 0.5125, 0.7575, 0.5225, 0.7675, 0.535, 0.7775, 0.545, 0.79, 0.555, 0.8, 0.565, 0.81, 0.5775, 0.8225, 0.5875, 0.8325, 0.5975, 0.8425, 0.6075, 0.8525, 0.62, 0.865, 0.63, 0.875, 0.64, 0.885, 0.65, 0.895, 0.6625, 0.9075, 0.6725, 0.9175, 0.6825, 0.9275, 0.6925],
      "ImagePositionPatient": [
        [-95.572956627421, -114.49908430299, -43.161422772307],
        [-95.6576837359, -114.26405126771, -40.171844525237],
        [-95.742410784774, -114.02902013978, -37.182266278167],
        [-95.827137893252, -113.79398901185, -34.192688031096],
        [-95.911865001731, -113.55895597657, -31.203109784026],
        [-95.996592110209, -113.32392484864, -28.213531536956],
        [-96.081319159083, -113.08889372071, -25.223951382537],
        [-96.166046327166, -112.85386068543, -22.234373135466],
        [-96.25077337604, -112.6188295575, -19.244792981047],
        [-96.335500544123, -112.38379842957, -16.255214733977],
        [-96.420227592997, -112.14876730164, -13.265636486907],
        [-96.504954641871, -111.91373426636, -10.276057286162],
        [-96.589681809954, -111.67870313844, -7.2864780854175],
        [-96.674408858828, -111.44367201051, -4.2968998383472],
        [-96.759136026912, -111.20863897523, -1.3073206376026],
        [-96.843863075785, -110.9736078473, 1.6822580863049],
        [-96.928590124659, -110.73857576569, 4.6718368549159],
        [-97.013317292743, -110.50354463776, 7.6614157725384],
        [-97.098044341616, -110.26851255616, 10.650994258027],
        [-97.18277139049, -110.03348047456, 13.640573458772],
        [-97.267498677783, -109.79844934663, 16.630151705842],
        [-97.352225726657, -109.56341726502, 19.619730906587],
        [-97.436952775531, -109.32838518342, 22.609310107332],
        [-97.521679824405, -109.09335405549, 25.598888354402],
        [-97.606406873278, -108.85832197388, 28.588466601472],
        [-97.691134160571, -108.62328989228, 31.578046755891],
        [-97.775861209445, -108.38825876435, 34.567625002961],
        [-97.860588258319, -108.15322668275, 37.55720515738],
        [-97.945315307193, -107.91819460114, 40.546783404451],
        [-98.030042356067, -107.68316347321, 43.536361651521],
        [-98.114769643359, -107.44813139161, 46.525939898591],
        [-98.199496692233, -107.21310026368, 49.515518145662],
        [-98.284223741107, -106.97806818208, 52.505096392732],
        [-98.368950789981, -106.74303610047, 55.494674639802],
        [-98.453677838855, -106.50800497254, 58.48425670157],
        [-98.538405126147, -106.27297289094, 61.47383494864],
        [-98.623132175021, -106.03794080933, 64.46341319571],
        [-98.707859223895, -105.8029096814, 67.452991442781],
        [-98.792586272769, -105.5678775998, 70.442569689851],
        [-98.877313321643, -105.3328455182, 73.432147936921],
        [-98.962040608935, -105.09781439027, 76.421726183992],
        [-99.04676741939, -104.86278230866, 79.411304431062],
        [-99.131494706683, -104.62775022706, 82.400882678132],
        [-99.216221993975, -104.39271909913, 85.390460925203]
],
      "InstanceCreationTime": ["124521.773000", "124521.664000", "124521.773000", "124521.742000", "124521.773000", "124521.742000", "124521.773000", "124521.742000", "124521.773000", "124521.742000", "124521.789000", "124521.742000", "124521.789000", "124521.742000", "124521.789000", "124521.757000", "124521.789000", "124521.757000", "124521.789000", "124521.757000", "124521.789000", "124521.757000", "124521.789000", "124521.757000", "124521.804000", "124521.757000", "124521.804000", "124521.757000", "124521.804000", "124521.757000", "124521.804000", "124521.773000", "124521.804000", "124521.773000", "124521.804000", "124521.773000", "124521.804000", "124521.773000", "124521.804000", "124521.773000", "124521.804000", "124521.773000", "124521.804000", "124521.773000"],
      "InstanceNumber": [1, 2, 3, 4, 5, 6, 7, 8, 9, 10, 11, 12, 13, 14, 15, 16, 17, 18, 19, 20, 21, 22, 23, 24, 25, 26, 27, 28, 29, 30, 31, 32, 33, 34, 35, 36, 37, 38, 39, 40, 41, 42, 43, 44],
      "LargestImagePixelValue": [4085, 4094, 4089, 4090, 4092, 4094, 4091, 4094, 4092, 4092, 4090, 4078, 4081, 4089, 4087, 4092, 4079, 4086, 4077, 4094, 4094, 4057, 4062, 4079, 4088, 4091, 4073, 4085, 4093, 4086, 4093, 4089, 4083, 4088, 4094, 4085, 4088, 4090, 4081, 4089, 4094, 4094, 4089, 4093],
      "SliceLocation": [-49.282591390475, -46.282591839486, -43.282592439609, -40.282593038048, -37.282593487059, -34.282594085499, -31.282592784898, -28.282593232226, -25.282591931626, -22.282592528382, -19.282593128505, -16.282592628837, -13.282592275232, -10.282592875355, -7.2825923723204, -4.2825924972626, -1.282592502942, 1.7174075685247, 4.7174072807066, 7.7174077056597, 10.71740711227, 13.717407537223, 16.717407962176, 19.717407362053, 22.717406836645, 25.717408218693, 28.71740761857, 31.717408993885, 34.717408468476, 37.717407868353, 40.717407349679, 43.717406749556, 46.717406224147, 49.717405698739, 52.717408900062, 55.717408381387, 58.717407855978, 61.717407255855, 64.717406730447, 67.717406205039, 70.717405611649, 73.717405079507, 76.717404560832, 79.717403967443],
      "SmallestImagePixelValue": [0, 0, 5, 0, 4, 2, 8, 6, 1, 1, 1, 0, 5, 9, 7, 0, 1, 0, 3, 24, 1, 48, 15, 11, 31, 19, 8, 5, 3, 6, 9, 5, 6, 5, 1, 0, 6, 5, 2, 1, 1, 0, 0, 0],
      "WindowCenter": [-222.0, -158.0, -180.0, -132.0, -156.0, -46.0, -116.0, -158.0, -222.0, -150.0, -216.0, -226.0, -278.0, -280.0, -202.0, -156.0, -106.0, -62.0, -82.0, -74.0, -116.0, -110.0, -132.0, -122.0, -96.0, -194.0, -74.0, -226.0, -236.0, -250.0, -248.0, -272.0, -266.0, -276.0, -312.0, -346.0, -340.0, -362.0, -376.0, -344.0, -318.0, -164.0, -168.0, -280.0],
      "WindowWidth": [5890.0, 5970.0, 5784.0, 5928.0, 5970.0, 6070.0, 6066.0, 6034.0, 5984.0, 6078.0, 6026.0, 5956.0, 5776.0, 5488.0, 5516.0, 5488.0, 5502.0, 5502.0, 5666.0, 5526.0, 5432.0, 5244.0, 5142.0, 5048.0, 5160.0, 4488.0, 4984.0, 4486.0, 4476.0, 4482.0, 4478.0, 4512.0, 4494.0, 4530.0, 4554.0, 4606.0, 4628.0, 4714.0, 4750.0, 4756.0, 4778.0, 5580.0, 5796.0, 5744.0]
    }
  }
}