{
  "AcquisitionMatrixPE": 64,
  "AcquisitionNumber": 1,
  "AcquisitionTime": "14:02:44.442500",
  "BaseResolution": 64,
  "CoilString": "C:HEA;HEP;NEP",
  "ConversionSoftware": "dcm2niix",
  "ConversionSoftwareVersion": "v1.0.20190410  GCC6.3.0",
  "DeviceSerialNumber": "51066",
  "DwellTime": 3e-05,
  "EchoNumber": 2,
  "EchoTime": 0.00738,
  "EchoTime1": 0.00492,
  "EchoTime2": 0.00738,
  "FlipAngle": 60,
  "ImageOrientationPatientDICOM": [0.999953, 0.00191665, -0.00950408, 2.03963e-10, 0.980265, 0.197686],
  "ImageType": [
    "ORIGINAL",
    "PRIMARY",
    "P",
    "ND"
],
  "ImagingFrequency": 123.24,
  "InPlanePhaseEncodingDirectionDICOM": "ROW",
  "InstitutionAddress": "Blackburn_Road_770_Clayton_Victoria_AU_3168",
  "InstitutionName": "Monash_Biomedical_Imaging",
  "InstitutionalDepartmentName": "Department",
  "MRAcquisitionType": "2D",
  "MagneticFieldStrength": 3,
  "Manufacturer": "Siemens",
  "ManufacturersModelName": "Biograph_mMR",
  "Modality": "MR",
  "PartialFourier": 1,
  "PatientPosition": "HFS",
  "PercentPhaseFOV": 100,
  "PhaseEncodingDirection": "i",
  "PhaseEncodingSteps": 64,
  "PhaseResolution": 1,
  "PixelBandwidth": 260,
  "ProcedureStepDescription": "MR-PET_Scan",
  "ProtocolName": "gre_field_mapping",
  "PulseSequenceDetails": "%SiemensSeq%_gre_field_mapping",
  "ReceiveCoilName": "HeadNeck_MRPET",
  "ReconMatrixPE": 64,
  "RepetitionTime": 0.466,
  "SAR": 0.0999357,
  "ScanningSequence": "GR",
  "SequenceName": "_fm2d2r",
  "SequenceVariant": "SP",
  "SeriesDescription": "gre_field_mapping",
  "SeriesNumber": 13,
  "ShimSetting": [-8350, -1036, -3979, 495, -286, -249, -119, -303],
  "SliceThickness": 3,
  "SliceTiming": [0.000705, -0.001, -0.001, -0.001, -0.001, -0.001, -0.001, -0.001, -0.001, -0.001, -0.001, -0.001, -0.001, -0.001, -0.001, -0.001, -0.001, -0.001, -0.001, -0.001, -0.001, -0.001, -0.001, -0.001, -0.001, -0.001, -0.001, -0.001, -0.001, -0.001, -0.001, -0.001, -0.001, -0.001, -0.001, -0.001, -0.001, -0.001, -0.001, -0.001, -0.001, -0.001, -0.001, -0.001],
  "SoftwareVersions": "syngo_MR_B20P",
  "SpacingBetweenSlices": 3,
  "StationName": "MRC51066",
  "TxRefAmp": 296.372,
  "dcmmeta_affine": [
    [-2.9686105251312256, 6.055151380301993e-10, -0.02908625453710556, 96.10931396484375],
    [-0.005690053571015596, 2.9101626873016357, 0.5930328369140625, -80.30122375488281],
    [-0.02821524441242218, -0.5868808031082153, 2.9406585693359375, -41.656394958496094],
    [0.0, 0.0, 0.0, 1.0]
],
  "dcmmeta_reorient_transform": [
    [0.0, -1.0, 0.0, 63.0],
    [1.0, 0.0, 0.0, 0.0],
    [0.0, 0.0, -1.0, 43.0],
    [0.0, 0.0, 0.0, 1.0]
],
  "dcmmeta_shape": [64, 64, 44],
  "dcmmeta_slice_dim": 2,
  "dcmmeta_version": 0.6,
  "global": {
    "const": {
      "AcquisitionMatrix": [0, 64, 64, 0],
      "AcquisitionNumber": 1,
      "Allergies": "None",
      "AngioFlag": "N",
      "BitsAllocated": 16,
      "BitsStored": 12,
      "Columns": 64,
      "EchoNumbers": 2,
      "EchoTime": 7.38,
      "EchoTrainLength": 1,
      "FlipAngle": 60.0,
      "HighBit": 11,
      "ImageOrientationPatient": [0.99995299833256, 0.00191664969941, -0.0095040822626, 2.03963e-10, 0.98026536331547, 0.19768615906023],
      "ImageType": [
        "ORIGINAL",
        "PRIMARY",
        "P",
        "ND"
],
      "ImagedNucleus": "1H",
      "ImagingFrequency": 123.23976,
      "InPlanePhaseEncodingDirection": "ROW",
      "MRAcquisitionType": "2D",
      "MagneticFieldStrength": 3.0,
      "Manufacturer": "SIEMENS",
      "ManufacturerModelName": "Biograph_mMR",
      "MedicalAlerts": "None",
      "Modality": "MR",
      "NumberOfAverages": 1.0,
      "NumberOfPhaseEncodingSteps": 64,
      "PercentPhaseFieldOfView": 100.0,
      "PercentSampling": 100.0,
      "PerformedProcedureStepStartTime": "134326.111000",
      "PhotometricInterpretation": "MONOCHROME2",
      "PixelBandwidth": 260.0,
      "PixelRepresentation": 0,
      "PixelSpacing": [2.96875, 2.96875],
      "PregnancyStatus": 4,
      "ProtocolName": "gre_field_mapping",
      "RepetitionTime": 466.0,
      "RequestAttributesSequence": [
        {
          "RequestedProcedureID": "MMH001",
          "ScheduledProcedureStepDescription": "MR-PET Scan",
          "ScheduledProcedureStepID": "001"}
],
      "RescaleIntercept": -4096.0,
      "RescaleSlope": 2.0,
      "RescaleType": "US",
      "Rows": 64,
      "SAR": 0.0999357099673,
      "SamplesPerPixel": 1,
      "ScanningSequence": "GR",
      "SequenceName": "*fm2d2r",
      "SequenceVariant": "SP",
      "SeriesDescription": "gre_field_mapping",
      "SeriesNumber": 13,
      "SeriesTime": "140344.736000",
      "SliceThickness": 3.0,
      "SoftwareVersions": "syngo MR B20P",
      "SpacingBetweenSlices": 3.0,
      "SpecificCharacterSet": "ISO_IR 100",
      "StudyID": "MMH001",
      "StudyTime": "134326.080000",
      "TransmitCoilName": "Body",
      "VariableFlipAngleFlag": "N",
      "WindowCenterWidthExplanation": "Algo1",
      "dBdt": 0.0},
    "slices": {
      "AcquisitionTime": ["140244.442500", "140244.210000", "140244.455000", "140244.220000", "140244.465000", "140244.230000", "140244.475000", "140244.242500", "140244.485000", "140244.252500", "140244.497500", "140244.262500", "140244.507500", "140244.272500", "140244.517500", "140244.285000", "140244.527500", "140244.295000", "140244.540000", "140244.305000", "140244.550000", "140244.315000", "140244.560000", "140244.327500", "140244.570000", "140244.337500", "140244.582500", "140244.347500", "140244.592500", "140244.357500", "140244.602500", "140244.370000", "140244.612500", "140244.380000", "140244.625000", "140244.390000", "140244.635000", "140244.400000", "140244.645000", "140244.412500", "140244.655000", "140244.422500", "140244.667500", "140244.432500"],
      "ContentTime": ["140344.798000", "140344.736000", "140344.814000", "140344.736000", "140344.814000", "140344.752000", "140344.814000", "140344.752000", "140344.814000", "140344.752000", "140344.814000", "140344.752000", "140344.814000", "140344.752000", "140344.814000", "140344.767000", "140344.830000", "140344.767000", "140344.830000", "140344.767000", "140344.830000", "140344.767000", "140344.830000", "140344.767000", "140344.830000", "140344.767000", "140344.845000", "140344.783000", "140344.845000", "140344.783000", "140344.861000", "140344.783000", "140344.861000", "140344.783000", "140344.861000", "140344.783000", "140344.861000", "140344.783000", "140344.861000", "140344.798000", "140344.861000", "140344.798000", "140344.877000", "140344.798000"],
      "CsaImage.ICE_Dims": [
        "X_2_1_1_1_1_1_23_1_1_1_1_101",
        "X_2_1_1_1_1_1_1_1_1_2_1_101",
        "X_2_1_1_1_1_1_24_1_1_3_1_101",
        "X_2_1_1_1_1_1_2_1_1_4_1_101",
        "X_2_1_1_1_1_1_25_1_1_5_1_101",
        "X_2_1_1_1_1_1_3_1_1_6_1_101",
        "X_2_1_1_1_1_1_26_1_1_7_1_101",
        "X_2_1_1_1_1_1_4_1_1_8_1_101",
        "X_2_1_1_1_1_1_27_1_1_9_1_101",
        "X_2_1_1_1_1_1_5_1_1_10_1_101",
        "X_2_1_1_1_1_1_28_1_1_11_1_101",
        "X_2_1_1_1_1_1_6_1_1_12_1_101",
        "X_2_1_1_1_1_1_29_1_1_13_1_101",
        "X_2_1_1_1_1_1_7_1_1_14_1_101",
        "X_2_1_1_1_1_1_30_1_1_15_1_101",
        "X_2_1_1_1_1_1_8_1_1_16_1_101",
        "X_2_1_1_1_1_1_31_1_1_17_1_101",
        "X_2_1_1_1_1_1_9_1_1_18_1_101",
        "X_2_1_1_1_1_1_32_1_1_19_1_101",
        "X_2_1_1_1_1_1_10_1_1_20_1_101",
        "X_2_1_1_1_1_1_33_1_1_21_1_101",
        "X_2_1_1_1_1_1_11_1_1_22_1_101",
        "X_2_1_1_1_1_1_34_1_1_23_1_101",
        "X_2_1_1_1_1_1_12_1_1_24_1_101",
        "X_2_1_1_1_1_1_35_1_1_25_1_101",
        "X_2_1_1_1_1_1_13_1_1_26_1_101",
        "X_2_1_1_1_1_1_36_1_1_27_1_101",
        "X_2_1_1_1_1_1_14_1_1_28_1_101",
        "X_2_1_1_1_1_1_37_1_1_29_1_101",
        "X_2_1_1_1_1_1_15_1_1_30_1_101",
        "X_2_1_1_1_1_1_38_1_1_31_1_101",
        "X_2_1_1_1_1_1_16_1_1_32_1_101",
        "X_2_1_1_1_1_1_39_1_1_33_1_101",
        "X_2_1_1_1_1_1_17_1_1_34_1_101",
        "X_2_1_1_1_1_1_40_1_1_35_1_101",
        "X_2_1_1_1_1_1_18_1_1_36_1_101",
        "X_2_1_1_1_1_1_41_1_1_37_1_101",
        "X_2_1_1_1_1_1_19_1_1_38_1_101",
        "X_2_1_1_1_1_1_42_1_1_39_1_101",
        "X_2_1_1_1_1_1_20_1_1_40_1_101",
        "X_2_1_1_1_1_1_43_1_1_41_1_101",
        "X_2_1_1_1_1_1_21_1_1_42_1_101",
        "X_2_1_1_1_1_1_44_1_1_43_1_101",
        "X_2_1_1_1_1_1_22_1_1_44_1_101"
],
      "CsaImage.ProtocolSliceNumber": [0, 1, 2, 3, 4, 5, 6, 7, 8, 9, 10, 11, 12, 13, 14, 15, 16, 17, 18, 19, 20, 21, 22, 23, 24, 25, 26, 27, 28, 29, 30, 31, 32, 33, 34, 35, 36, 37, 38, 39, 40, 41, 42, 43],
      "CsaImage.SliceMeasurementDuration": [58952.5, 58950.0, 58950.0, 58952.5, 58952.5, 58952.5, 58952.5, 58950.0, 58952.5, 58950.0, 58950.0, 58952.5, 58952.5, 58952.5, 58952.5, 58950.0, 58952.5, 58950.0, 58950.0, 58952.5, 58952.5, 58952.5, 58952.5, 58950.0, 58952.5, 58952.5, 58950.0, 58952.5, 58952.5, 58952.5, 58952.5, 58950.0, 58952.5, 58952.5, 58950.0, 58952.5, 58952.5, 58952.5, 58952.5, 58950.0, 58952.5, 58952.5, 58950.0, 58952.5],
      "CsaImage.SlicePosition_PCS": [
        [-96.10931727, -103.03912279, -62.62985696],
        [-96.08023103, -103.63215372, -59.68919839],
        [-96.05114468, -104.22518465, -56.74853982],
        [-96.02205845, -104.81821558, -53.80788125],
        [-95.99297222, -105.41124555, -50.86722268],
        [-95.96388599, -106.00427648, -47.92656602],
        [-95.93479969, -106.59730741, -44.98590745],
        [-95.90571346, -107.19033739, -42.04525079],
        [-95.87662723, -107.78336832, -39.10459222],
        [-95.84754094, -108.37639925, -36.16393365],
        [-95.81845471, -108.96942922, -33.22327699],
        [-95.78936847, -109.56246015, -30.28261842],
        [-95.76028218, -110.15549108, -27.3419608],
        [-95.73119595, -110.74852201, -24.40130319],
        [-95.70210972, -111.34155294, -21.46064509],
        [-95.67302343, -111.93458196, -18.5199873],
        [-95.64393719, -112.52761289, -15.57932939],
        [-95.61485096, -113.12064382, -12.63867177],
        [-95.58576467, -113.71367475, -9.69801415],
        [-95.55667844, -114.30670568, -6.75735558],
        [-95.52759221, -114.89973661, -3.81669797],
        [-95.49850591, -115.49276563, -0.87604035],
        [-95.46941968, -116.08579656, 2.06461822],
        [-95.44033342, -116.67882749, 5.00527488],
        [-95.41124716, -117.27185842, 7.94593345],
        [-95.38216093, -117.86488935, 10.88659202],
        [-95.35307466, -118.45792028, 13.82724868],
        [-95.3239884, -119.05095121, 16.76790534],
        [-95.29490217, -119.64398023, 19.70856391],
        [-95.26581591, -120.23701116, 22.64922248],
        [-95.23672965, -120.83004209, 25.58988105],
        [-95.2076434, -121.42307302, 28.53053962],
        [-95.17855714, -122.01610395, 31.47119819],
        [-95.14947089, -122.60913488, 34.41185294],
        [-95.12038463, -123.2021639, 37.35251151],
        [-95.09129839, -123.79519483, 40.29317008],
        [-95.06221213, -124.38822576, 43.23382865],
        [-95.03312588, -124.98125669, 46.1744834],
        [-95.00403963, -125.57428571, 49.11514197],
        [-94.97495337, -126.16731855, 52.05580054],
        [-94.94586712, -126.76034757, 54.99645911],
        [-94.91678087, -127.35338041, 57.93711768],
        [-94.88769461, -127.94640943, 60.87777625],
        [-94.85860836, -128.53944227, 63.81843482]
],
      "CsaImage.TimeAfterStart": [0.705, 0.47, 0.715, 0.4825, 0.725, 0.4925, 0.7375, 0.5025, 0.7475, 0.5125, 0.7575, 0.525, 0.7675, 0.535, 0.78, 0.545, 0.79, 0.555, 0.8, 0.5675, 0.81, 0.5775, 0.8225, 0.5875, 0.8325, 0.5975, 0.8425, 0.61, 0.8525, 0.62, 0.865, 0.63, 0.875, 0.64, 0.885, 0.6525, 0.895, 0.6625, 0.9075, 0.6725, 0.9175, 0.6825, 0.9275, 0.695],
      "ImagePositionPatient": [
        [-96.109317266823, -103.03912278701, -78.629856957637],
        [-96.080231034638, -103.63215371658, -75.689198388301],
        [-96.051144683243, -104.22518464614, -72.748539818965],
        [-96.022058451058, -104.81821557571, -69.807881249629],
        [-95.992972218872, -105.4112455516, -66.867222680293],
        [-95.963885986687, -106.00427648116, -63.926566018306],
        [-95.934799694897, -106.59730741073, -60.98590744897],
        [-95.905713462711, -107.19033738662, -58.045250786983],
        [-95.876627230526, -107.78336831619, -55.104592217647],
        [-95.847540938736, -108.37639924575, -52.163933648311],
        [-95.818454706551, -108.96942922164, -49.223276986324],
        [-95.789368474365, -109.56246015121, -46.282618416988],
        [-95.760282182575, -110.15549108077, -43.341960801326],
        [-95.73119595039, -110.74852201034, -40.401303185665],
        [-95.702109718205, -111.3415529399, -37.460645093166],
        [-95.673023426415, -111.93458196212, -34.51998729869],
        [-95.643937194229, -112.52761289169, -31.579329385005],
        [-95.614850962044, -113.12064382125, -28.638671769344],
        [-95.585764670254, -113.71367475082, -25.698014153682],
        [-95.556678438069, -114.30670568038, -22.757355584346],
        [-95.527592205883, -114.89973660995, -19.816697968685],
        [-95.498505914093, -115.49276563217, -16.876040353023],
        [-95.469419681908, -116.08579656173, -13.935381783687],
        [-95.44033341992, -116.6788274913, -10.9947251217],
        [-95.411247157932, -117.27185842086, -8.0540665523638],
        [-95.382160925747, -117.86488935043, -5.1134079830279],
        [-95.353074663759, -118.45792027999, -2.1727513210406],
        [-95.323988401772, -119.05095120956, 0.76790534094675],
        [-95.294902169586, -119.64398023177, 3.7085639102827],
        [-95.265815907599, -120.23701116134, 6.6492224796186],
        [-95.236729645611, -120.83004209091, 9.5898810489546],
        [-95.207643398524, -121.42307302047, 12.530539618291],
        [-95.178557136537, -122.01610395004, 15.471198187626],
        [-95.14947088945, -122.6091348796, 18.411852942265],
        [-95.120384634913, -123.20216390182, 21.352511511601],
        [-95.091298387827, -123.79519483138, 24.293170080937],
        [-95.062212133289, -124.38822576095, 27.233828650273],
        [-95.033125878752, -124.98125669051, 30.174483404912],
        [-95.004039625147, -125.57428571273, 33.115141974248],
        [-94.974953373403, -126.16731854965, 36.055800543583],
        [-94.945867118866, -126.76034757186, 38.996459112919],
        [-94.916780868055, -127.35338040878, 41.937117682255],
        [-94.887694613517, -127.94640943099, 44.877776251591],
        [-94.85860835898, -128.53944226791, 47.818434820927]
],
      "InstanceCreationTime": ["140344.798000", "140344.736000", "140344.814000", "140344.736000", "140344.814000", "140344.752000", "140344.814000", "140344.752000", "140344.814000", "140344.752000", "140344.814000", "140344.752000", "140344.814000", "140344.752000", "140344.814000", "140344.767000", "140344.830000", "140344.767000", "140344.830000", "140344.767000", "140344.830000", "140344.767000", "140344.830000", "140344.767000", "140344.830000", "140344.767000", "140344.845000", "140344.783000", "140344.845000", "140344.783000", "140344.861000", "140344.783000", "140344.861000", "140344.783000", "140344.861000", "140344.783000", "140344.861000", "140344.783000", "140344.861000", "140344.798000", "140344.861000", "140344.798000", "140344.877000", "140344.798000"],
      "InstanceNumber": [1, 2, 3, 4, 5, 6, 7, 8, 9, 10, 11, 12, 13, 14, 15, 16, 17, 18, 19, 20, 21, 22, 23, 24, 25, 26, 27, 28, 29, 30, 31, 32, 33, 34, 35, 36, 37, 38, 39, 40, 41, 42, 43, 44],
      "LargestImagePixelValue": [4093, 4093, 4092, 4094, 4094, 4091, 4090, 4059, 4090, 4094, 4069, 4087, 4093, 4066, 4059, 4084, 4091, 4094, 4039, 4089, 4047, 4051, 4067, 4084, 4087, 4085, 4078, 4094, 4082, 4094, 4089, 4076, 4091, 4094, 4094, 4090, 4092, 4094, 4092, 4093, 4093, 4091, 4086, 4093],
      "SliceLocation": [-57.637871459283, -54.637870706994, -51.63786995355, -48.637869201261, -45.637868637492, -42.637869754823, -39.637869001956, -36.637870307807, -33.637869555518, -30.637868802651, -27.637870108502, -24.637869356213, -21.637869538157, -18.637869720678, -15.637869435794, -12.637869819499, -9.6378697098924, -6.6378698924137, -3.637870074357, -0.6378693220683, 2.3621304954104, 5.3621299364284, 8.3621306887171, 11.362129571675, 14.362130324252, 17.362131076541, 20.362129959499, 23.362128842457, 26.362129217707, 29.362129970284, 32.362130722862, 35.362131475295, 38.362132227873, 41.362129241066, 44.362129616533, 47.362130368966, 50.362131121471, 53.362128134737, 56.362128510195, 59.362129639712, 62.362130015178, 65.362131144686, 68.362131520153, 71.362132649697],
      "SmallestImagePixelValue": [0, 1, 1, 0, 1, 14, 3, 0, 2, 0, 3, 4, 3, 7, 7, 8, 7, 19, 5, 3, 31, 14, 33, 21, 13, 0, 19, 21, 11, 9, 12, 1, 8, 0, 0, 7, 10, 1, 0, 3, 1, 2, 0, 2],
      "WindowCenter": [10.0, -110.0, -104.0, -54.0, -106.0, -120.0, -130.0, -256.0, -214.0, -186.0, -240.0, -170.0, -134.0, -144.0, -212.0, -204.0, -350.0, -370.0, -346.0, -164.0, -296.0, -168.0, -116.0, -210.0, -174.0, -24.0, -142.0, -36.0, -142.0, -136.0, -124.0, -164.0, -68.0, -126.0, -138.0, -260.0, -120.0, -30.0, -68.0, -36.0, -114.0, -174.0, -212.0, -258.0],
      "WindowWidth": [6380.0, 6270.0, 6318.0, 6264.0, 6296.0, 6148.0, 6124.0, 5902.0, 5844.0, 5822.0, 5658.0, 5710.0, 5762.0, 5734.0, 5616.0, 5472.0, 4688.0, 4684.0, 4676.0, 5352.0, 4632.0, 5134.0, 5158.0, 4558.0, 4534.0, 5202.0, 4516.0, 5060.0, 4518.0, 4516.0, 4510.0, 4544.0, 5042.0, 5392.0, 5342.0, 4678.0, 5380.0, 5658.0, 5658.0, 5744.0, 5624.0, 5758.0, 5924.0, 6124.0]
    }
  }
}