{
  "AcquisitionMatrixPE": 64,
  "AcquisitionNumber": 1,
  "AcquisitionTime": "12:28:13.147500",
  "BaseResolution": 64,
  "BodyPartExamined": "BRAIN",
  "CoilString": "HEA;HEP;NEP",
  "ConsistencyInfo": "N4_VE11P_LATEST_20161021",
  "ConversionSoftware": "dcm2niix",
  "ConversionSoftwareVersion": "v1.0.20190410  GCC6.3.0",
  "DeviceSerialNumber": "51066",
  "DwellTime": 3e-05,
  "EchoNumber": 2,
  "EchoTime": 0.00765,
  "EchoTime1": 0.00519,
  "EchoTime2": 0.00765,
  "FlipAngle": 60,
  "ImageOrientationPatientDICOM": [0.998645, -0.0478843, 0.0203881, 0.0505892, 0.98512, -0.164257],
  "ImageType": [
    "ORIGINAL",
    "PRIMARY",
    "P",
    "ND"
],
  "ImagingFrequency": 123.24,
  "InPlanePhaseEncodingDirectionDICOM": "ROW",
  "InstitutionAddress": "Blackburn_Road_770_Clayton_Victoria_AU_3168",
  "InstitutionName": "MONASH_BIOMEDICAL_IMAGING",
  "InstitutionalDepartmentName": "Department",
  "MRAcquisitionType": "2D",
  "MagneticFieldStrength": 3,
  "Manufacturer": "Siemens",
  "ManufacturersModelName": "Biograph_mMR",
  "Modality": "MR",
  "PartialFourier": 1,
  "PatientPosition": "HFS",
  "PercentPhaseFOV": 100,
  "PhaseEncodingDirection": "i",
  "PhaseEncodingSteps": 64,
  "PhaseResolution": 1,
  "PixelBandwidth": 260,
  "ProcedureStepDescription": "MR-PET_Scan",
  "ProtocolName": "Head_gre_field_mapping",
  "PulseSequenceDetails": "%SiemensSeq%_gre_field_mapping",
  "ReceiveCoilName": "HeadNeck_MRPET",
  "ReconMatrixPE": 64,
  "RepetitionTime": 0.488,
  "SAR": 0.126793,
  "ScanningSequence": "GR",
  "SequenceName": "_fm2d2r",
  "SequenceVariant": "SP",
  "SeriesDescription": "Head_gre_field_mapping",
  "SeriesNumber": 8,
  "ShimSetting": [-8354, -963, -3771, 653, -415, -302, -427, -320],
  "SliceThickness": 3,
  "SliceTiming": [0.000735, -0.001, -0.001, -0.001, -0.001, -0.001, -0.001, -0.001, -0.001, -0.001, -0.001, -0.001, -0.001, -0.001, -0.001, -0.001, -0.001, -0.001, -0.001, -0.001, -0.001, -0.001, -0.001, -0.001, -0.001, -0.001, -0.001, -0.001, -0.001, -0.001, -0.001, -0.001, -0.001, -0.001, -0.001, -0.001, -0.001, -0.001, -0.001, -0.001, -0.001, -0.001, -0.001, -0.001],
  "SoftwareVersions": "syngo_MR_E11",
  "SpacingBetweenSlices": 3,
  "StationName": "MRC51066",
  "TxRefAmp": 297.514,
  "dcmmeta_affine": [
    [-2.964726686477661, 0.15018658339977264, 0.03665810823440552, 88.10098266601562],
    [0.1421564221382141, 2.9245734214782715, -0.495197057723999, -70.57954406738281],
    [0.06052704155445099, 0.4876374304294586, 2.9586181640625, -75.15229034423828],
    [0.0, 0.0, 0.0, 1.0]
],
  "dcmmeta_reorient_transform": [
    [0.0, -1.0, 0.0, 63.0],
    [1.0, 0.0, 0.0, 0.0],
    [0.0, 0.0, -1.0, 43.0],
    [0.0, 0.0, 0.0, 1.0]
],
  "dcmmeta_shape": [64, 64, 44],
  "dcmmeta_slice_dim": 2,
  "dcmmeta_version": 0.6,
  "global": {
    "const": {
      "AcquisitionMatrix": [0, 64, 64, 0],
      "AcquisitionNumber": 1,
      "Allergies": "None",
      "AngioFlag": "N",
      "BitsAllocated": 16,
      "BitsStored": 12,
      "BodyPartExamined": "BRAIN",
      "Columns": 64,
      "EchoNumbers": 2,
      "EchoTime": 7.65,
      "EchoTrainLength": 0,
      "FlipAngle": 60.0,
      "HighBit": 11,
      "ImageOrientationPatient": [0.99864479369801, -0.0478842687937, 0.02038805586499, 0.05058916305488, 0.98511950166777, -0.1642568233446],
      "ImageType": [
        "ORIGINAL",
        "PRIMARY",
        "P",
        "ND"
],
      "ImagedNucleus": "1H",
      "ImagingFrequency": 123.239573,
      "InPlanePhaseEncodingDirection": "ROW",
      "MRAcquisitionType": "2D",
      "MagneticFieldStrength": 3.0,
      "Manufacturer": "SIEMENS",
      "ManufacturerModelName": "Biograph_mMR",
      "MedicalAlerts": "None",
      "Modality": "MR",
      "NumberOfAverages": 1.0,
      "NumberOfPhaseEncodingSteps": 64,
      "PercentPhaseFieldOfView": 100.0,
      "PercentSampling": 100.0,
      "PerformedProcedureStepStartTime": "120912.771000",
      "PhotometricInterpretation": "MONOCHROME2",
      "PixelBandwidth": 260.0,
      "PixelRepresentation": 0,
      "PixelSpacing": [2.96875, 2.96875],
      "PregnancyStatus": 4,
      "ProtocolName": "Head_gre_field_mapping",
      "RepetitionTime": 488.0,
      "RequestAttributesSequence": [
        {
          "RequestedProcedureID": "MMH001",
          "ScheduledProcedureStepDescription": "MR-PET Scan",
          "ScheduledProcedureStepID": "001"}
],
      "RescaleIntercept": -4096.0,
      "RescaleSlope": 2.0,
      "RescaleType": "US",
      "Rows": 64,
      "SAR": 0.12679337589998,
      "SamplesPerPixel": 1,
      "ScanningSequence": "GR",
      "SequenceName": "*fm2d2r",
      "SequenceVariant": "SP",
      "SeriesDescription": "Head_gre_field_mapping",
      "SeriesNumber": 8,
      "SeriesTime": "122915.129000",
      "SliceThickness": 3.0,
      "SoftwareVersions": "syngo MR E11",
      "SpacingBetweenSlices": 3.0,
      "SpecificCharacterSet": "ISO_IR 100",
      "StudyID": "MMH001",
      "StudyTime": "120912.661000",
      "TransmitCoilName": "Body",
      "VariableFlipAngleFlag": "N",
      "WindowCenterWidthExplanation": "Algo1",
      "dBdt": 0.0},
    "slices": {
      "AcquisitionTime": ["122813.147500", "122812.902500", "122813.157500", "122812.915000", "122813.170000", "122812.925000", "122813.180000", "122812.935000", "122813.190000", "122812.947500", "122813.202500", "122812.957500", "122813.212500", "122812.970000", "122813.225000", "122812.980000", "122813.235000", "122812.992500", "122813.247500", "122813.002500", "122813.257500", "122813.012500", "122813.270000", "122813.025000", "122813.280000", "122813.035000", "122813.290000", "122813.047500", "122813.302500", "122813.057500", "122813.312500", "122813.070000", "122813.325000", "122813.080000", "122813.335000", "122813.092500", "122813.347500", "122813.102500", "122813.357500", "122813.112500", "122813.367500", "122813.125000", "122813.380000", "122813.135000"],
      "ContentTime": ["122915.168000", "122915.131000", "122915.170000", "122915.132000", "122915.172000", "122915.134000", "122915.173000", "122915.136000", "122915.175000", "122915.137000", "122915.177000", "122915.139000", "122915.179000", "122915.140000", "122915.181000", "122915.142000", "122915.182000", "122915.144000", "122915.184000", "122915.145000", "122915.186000", "122915.147000", "122915.187000", "122915.149000", "122915.189000", "122915.151000", "122915.191000", "122915.152000", "122915.193000", "122915.154000", "122915.197000", "122915.156000", "122915.199000", "122915.157000", "122915.201000", "122915.159000", "122915.203000", "122915.161000", "122915.205000", "122915.163000", "122915.206000", "122915.164000", "122915.208000", "122915.166000"],
      "CsaImage.ICE_Dims": [
        "X_2_1_1_1_1_1_23_1_1_1_1_68",
        "X_2_1_1_1_1_1_1_1_1_2_1_68",
        "X_2_1_1_1_1_1_24_1_1_3_1_68",
        "X_2_1_1_1_1_1_2_1_1_4_1_68",
        "X_2_1_1_1_1_1_25_1_1_5_1_68",
        "X_2_1_1_1_1_1_3_1_1_6_1_68",
        "X_2_1_1_1_1_1_26_1_1_7_1_68",
        "X_2_1_1_1_1_1_4_1_1_8_1_68",
        "X_2_1_1_1_1_1_27_1_1_9_1_68",
        "X_2_1_1_1_1_1_5_1_1_10_1_68",
        "X_2_1_1_1_1_1_28_1_1_11_1_68",
        "X_2_1_1_1_1_1_6_1_1_12_1_68",
        "X_2_1_1_1_1_1_29_1_1_13_1_68",
        "X_2_1_1_1_1_1_7_1_1_14_1_68",
        "X_2_1_1_1_1_1_30_1_1_15_1_68",
        "X_2_1_1_1_1_1_8_1_1_16_1_68",
        "X_2_1_1_1_1_1_31_1_1_17_1_68",
        "X_2_1_1_1_1_1_9_1_1_18_1_68",
        "X_2_1_1_1_1_1_32_1_1_19_1_68",
        "X_2_1_1_1_1_1_10_1_1_20_1_68",
        "X_2_1_1_1_1_1_33_1_1_21_1_68",
        "X_2_1_1_1_1_1_11_1_1_22_1_68",
        "X_2_1_1_1_1_1_34_1_1_23_1_68",
        "X_2_1_1_1_1_1_12_1_1_24_1_68",
        "X_2_1_1_1_1_1_35_1_1_25_1_68",
        "X_2_1_1_1_1_1_13_1_1_26_1_68",
        "X_2_1_1_1_1_1_36_1_1_27_1_68",
        "X_2_1_1_1_1_1_14_1_1_28_1_68",
        "X_2_1_1_1_1_1_37_1_1_29_1_68",
        "X_2_1_1_1_1_1_15_1_1_30_1_68",
        "X_2_1_1_1_1_1_38_1_1_31_1_68",
        "X_2_1_1_1_1_1_16_1_1_32_1_68",
        "X_2_1_1_1_1_1_39_1_1_33_1_68",
        "X_2_1_1_1_1_1_17_1_1_34_1_68",
        "X_2_1_1_1_1_1_40_1_1_35_1_68",
        "X_2_1_1_1_1_1_18_1_1_36_1_68",
        "X_2_1_1_1_1_1_41_1_1_37_1_68",
        "X_2_1_1_1_1_1_19_1_1_38_1_68",
        "X_2_1_1_1_1_1_42_1_1_39_1_68",
        "X_2_1_1_1_1_1_20_1_1_40_1_68",
        "X_2_1_1_1_1_1_43_1_1_41_1_68",
        "X_2_1_1_1_1_1_21_1_1_42_1_68",
        "X_2_1_1_1_1_1_44_1_1_43_1_68",
        "X_2_1_1_1_1_1_22_1_1_44_1_68"
],
      "CsaImage.ProtocolSliceNumber": [0, 1, 2, 3, 4, 5, 6, 7, 8, 9, 10, 11, 12, 13, 14, 15, 16, 17, 18, 19, 20, 21, 22, 23, 24, 25, 26, 27, 28, 29, 30, 31, 32, 33, 34, 35, 36, 37, 38, 39, 40, 41, 42, 43],
      "CsaImage.RFSWDDataType": [
        "predicted",
        "predicted",
        "predicted",
        "predicted",
        "predicted",
        "predicted",
        "predicted",
        "predicted",
        "predicted",
        "predicted",
        "predicted",
        "predicted",
        "predicted",
        "predicted",
        "predicted",
        "predicted",
        "predicted",
        "predicted",
        "predicted",
        "predicted",
        "predicted",
        "predicted",
        "predicted",
        "predicted",
        "predicted",
        "predicted",
        "predicted",
        "predicted",
        "predicted",
        "predicted",
        "predicted",
        "predicted",
        "predicted",
        "predicted",
        "predicted",
        "predicted",
        "predicted",
        "predicted",
        "predicted",
        "predicted",
        "predicted",
        "predicted",
        "measured",
        "predicted"
],
      "CsaImage.SliceMeasurementDuration": [61487.5, 61487.5, 61487.5, 61487.5, 61487.5, 61487.5, 61487.5, 61490.0, 61490.0, 61487.5, 61487.5, 61490.0, 61490.0, 61487.5, 61487.5, 61487.5, 61487.5, 61487.5, 61487.5, 61487.5, 61487.5, 61490.0, 61487.5, 61487.5, 61487.5, 61490.0, 61490.0, 61487.5, 61487.5, 61487.5, 61487.5, 61487.5, 61487.5, 61487.5, 61487.5, 61487.5, 61487.5, 61487.5, 61487.5, 61490.0, 61490.0, 61487.5, 61487.5, 61487.5],
      "CsaImage.SlicePosition_PCS": [
        [-97.56274254, -113.66857843, -44.43123723],
        [-97.59940058, -113.17338304, -41.47261525],
        [-97.63605887, -112.67818575, -38.51399709],
        [-97.67271692, -112.18298845, -35.55537511],
        [-97.70937485, -111.68779115, -32.59675313],
        [-97.7460329, -111.19259386, -29.63813497],
        [-97.78269107, -110.69739847, -26.67951299],
        [-97.81934911, -110.20220117, -23.72089101],
        [-97.85600716, -109.70700388, -20.76227285],
        [-97.89266521, -109.21180658, -17.80365087],
        [-97.92932326, -108.71660928, -14.84503079],
        [-97.96598131, -108.2214139, -11.88641072],
        [-98.00263936, -107.7262166, -8.92778874],
        [-98.03929741, -107.2310193, -5.96916867],
        [-98.07595545, -106.73582201, -3.0105486],
        [-98.11261362, -106.24062471, -0.05192758],
        [-98.14927167, -105.74542932, 2.90669345],
        [-98.18592972, -105.25023203, 5.865314],
        [-98.22258777, -104.75503473, 8.82393454],
        [-98.25924582, -104.25983839, 11.78255533],
        [-98.29590387, -103.76464109, 14.741176],
        [-98.33256191, -103.26944475, 17.69979667],
        [-98.36921996, -102.77424745, 20.65841721],
        [-98.40587801, -102.27905016, 23.61703776],
        [-98.44253618, -101.78385381, 26.57565879],
        [-98.47919423, -101.28865652, 29.53427886],
        [-98.51585228, -100.79346018, 32.49289988],
        [-98.55251032, -100.29826288, 35.45151996],
        [-98.58916837, -99.80306558, 38.41014193],
        [-98.62582642, -99.30786924, 41.36876201],
        [-98.66248447, -98.81267194, 44.32738208],
        [-98.69914258, -98.3174756, 47.28600215],
        [-98.73580063, -97.82227831, 50.24462413],
        [-98.77245868, -97.32708196, 53.20324611],
        [-98.80911672, -96.83188467, 56.16186427],
        [-98.84577483, -96.33668785, 59.12048625],
        [-98.88243288, -95.84149103, 62.07910823],
        [-98.91909093, -95.34629421, 65.03772639],
        [-98.95574898, -94.85109691, 67.99634837],
        [-98.99240709, -94.35590009, 70.95497035],
        [-99.02906514, -93.86070327, 73.91358851],
        [-99.06572318, -93.36550646, 76.87221049],
        [-99.10238123, -92.87030964, 79.83083247],
        [-99.13903934, -92.37511258, 82.78945064]
],
      "CsaImage.TimeAfterStart": [0.735, 0.49, 0.745, 0.5, 0.755, 0.5125, 0.7675, 0.5225, 0.7775, 0.535, 0.79, 0.545, 0.8, 0.5575, 0.8125, 0.5675, 0.8225, 0.5775, 0.8325, 0.59, 0.845, 0.6, 0.855, 0.6125, 0.8675, 0.6225, 0.8775, 0.635, 0.89, 0.645, 0.9, 0.655, 0.91, 0.6675, 0.9225, 0.6775, 0.9325, 0.69, 0.945, 0.7, 0.955, 0.7125, 0.9675, 0.7225],
      "ImagePositionPatient": [
        [-97.562742535049, -113.66857843102, -44.431237231041],
        [-97.599400583679, -113.17338304223, -41.472615252282],
        [-97.636058870727, -112.67818574609, -38.513997088219],
        [-97.672716919357, -112.18298844994, -35.555375109459],
        [-97.709374848777, -111.6877911538, -32.5967531307],
        [-97.746032897407, -111.19259385766, -29.638134966637],
        [-97.782691065246, -110.69739846886, -26.679512987877],
        [-97.819349113876, -110.20220117272, -23.720891009118],
        [-97.856007162506, -109.70700387658, -20.762272845055],
        [-97.892665211136, -109.21180658044, -17.803650866295],
        [-97.929323259765, -108.71660928429, -14.845030794884],
        [-97.965981308395, -108.2214138955, -11.886410723473],
        [-98.002639357025, -107.72621659936, -8.9277887447132],
        [-98.039297405655, -107.23101930322, -5.9691686733021],
        [-98.075955454284, -106.73582200707, -3.010548601891],
        [-98.112613622123, -106.24062471093, -0.0519275768055],
        [-98.149271670753, -105.74542932214, 2.9066934482799],
        [-98.185929719383, -105.25023202599, 5.8653139965282],
        [-98.222587768013, -104.75503472985, 8.8239345447765],
        [-98.259245816642, -104.25983838738, 11.782555331443],
        [-98.295903865272, -103.76464109124, 14.741175998901],
        [-98.332561913902, -103.26944474877, 17.699796666359],
        [-98.369219962532, -102.77424745263, 20.658417214607],
        [-98.405878011161, -102.27905015649, 23.617037762855],
        [-98.442536179001, -101.78385381402, 26.575658787941],
        [-98.47919422763, -101.28865651788, 29.534278859352],
        [-98.51585227626, -100.79346017541, 32.492899884437],
        [-98.55251032489, -100.29826287927, 35.451519955848],
        [-98.58916837352, -99.803065583123, 38.410141934608],
        [-98.625826422149, -99.307869240654, 41.368762006019],
        [-98.662484470779, -98.812671944512, 44.32738207743],
        [-98.699142579013, -98.317475602044, 47.286002148841],
        [-98.735800627643, -97.822278305901, 50.244624127601],
        [-98.772458676273, -97.327081963433, 53.203246106361],
        [-98.809116724903, -96.83188466729, 56.161864270423],
        [-98.845774833137, -96.336687847985, 59.120486249183],
        [-98.882432881767, -95.841491028679, 62.079108227943],
        [-98.919090930397, -95.346294209374, 65.037726392006],
        [-98.955748979026, -94.851096913231, 67.996348370765],
        [-98.992407087261, -94.355900093926, 70.954970349525],
        [-99.029065135891, -93.86070327462, 73.913588513588],
        [-99.06572318452, -93.365506455315, 76.872210492347],
        [-99.10238123315, -92.87030963601, 79.830832471107],
        [-99.139039341385, -92.375112578286, 82.78945063517]
],
      "InstanceCreationTime": ["122915.168000", "122915.131000", "122915.170000", "122915.132000", "122915.172000", "122915.134000", "122915.173000", "122915.136000", "122915.175000", "122915.137000", "122915.177000", "122915.139000", "122915.179000", "122915.140000", "122915.181000", "122915.142000", "122915.182000", "122915.144000", "122915.184000", "122915.145000", "122915.186000", "122915.147000", "122915.187000", "122915.149000", "122915.189000", "122915.151000", "122915.191000", "122915.152000", "122915.193000", "122915.154000", "122915.197000", "122915.156000", "122915.199000", "122915.157000", "122915.201000", "122915.159000", "122915.203000", "122915.161000", "122915.205000", "122915.163000", "122915.206000", "122915.164000", "122915.208000", "122915.166000"],
      "InstanceNumber": [1, 2, 3, 4, 5, 6, 7, 8, 9, 10, 11, 12, 13, 14, 15, 16, 17, 18, 19, 20, 21, 22, 23, 24, 25, 26, 27, 28, 29, 30, 31, 32, 33, 34, 35, 36, 37, 38, 39, 40, 41, 42, 43, 44],
      "LargestImagePixelValue": [4095, 4088, 4095, 4094, 4094, 4088, 4092, 4089, 4083, 4077, 4090, 4086, 4093, 4091, 4092, 4086, 4088, 4083, 4093, 4084, 4085, 4075, 4093, 4092, 4072, 4076, 4086, 4084, 4067, 4067, 4087, 4095, 4092, 4092, 4095, 4090, 4079, 4095, 4094, 4092, 4094, 4092, 4094, 4093],
      "SliceLocation": [-61.389014700813, -58.389013651012, -55.38901604554, -52.389014680901, -49.389013317719, -46.38901571516, -43.389014663902, -40.389013299263, -37.389015696705, -34.389014332065, -31.389014848467, -28.389015679706, -25.389014315066, -22.389014831468, -19.389015347869, -16.389014922293, -13.389014813012, -10.389014859153, -7.3890149052944, -4.3890148737244, -1.3890148023005, 1.6109851117045, 4.6109850655634, 7.6109850194222, 10.610985287579, 13.610984771178, 16.610985037878, 19.610984521477, 22.610985886116, 25.610985212296, 28.610984695894, 31.610984022803, 34.610985387442, 37.610986594662, 40.61098419722, 43.610985483878, 46.610986769808, 49.610984293657, 52.610985658296, 55.610986944954, 58.610984468803, 61.610985754733, 64.610987040663, 67.610984604595],
      "SmallestImagePixelValue": [2, 6, 0, 2, 1, 3, 6, 3, 20, 2, 6, 9, 29, 4, 2, 9, 10, 30, 8, 9, 80, 2, 26, 19, 10, 12, 4, 29, 1, 15, 5, 2, 0, 5, 2, 13, 14, 1, 0, 10, 9, 0, 5, 1],
      "WindowCenter": [-206.0, -202.0, -136.0, -174.0, -178.0, -168.0, -122.0, -158.0, -252.0, -278.0, -214.0, -208.0, -326.0, -130.0, -90.0, -66.0, -92.0, -94.0, -72.0, -90.0, -210.0, -86.0, -108.0, -214.0, -196.0, -212.0, -172.0, -204.0, -186.0, -198.0, -164.0, -194.0, -174.0, -180.0, -172.0, -130.0, -166.0, -166.0, -210.0, -240.0, -354.0, -390.0, -396.0, -280.0],
      "WindowWidth": [5626.0, 5822.0, 5940.0, 5952.0, 5950.0, 6072.0, 6056.0, 5960.0, 5818.0, 5770.0, 5612.0, 5472.0, 4668.0, 5440.0, 5484.0, 5506.0, 5366.0, 5186.0, 5208.0, 5230.0, 4544.0, 5142.0, 4892.0, 4564.0, 4544.0, 4564.0, 4528.0, 4560.0, 4542.0, 4568.0, 4540.0, 4582.0, 4566.0, 4588.0, 4596.0, 4582.0, 4580.0, 4620.0, 4646.0, 4730.0, 4808.0, 4888.0, 4946.0, 5594.0]
    }
  }
}