{
  "AcquisitionMatrixPE": 64,
  "AcquisitionNumber": 1,
  "AcquisitionTime": "12:48:22.037500",
  "BaseResolution": 64,
  "BodyPartExamined": "BRAIN",
  "CoilString": "HEA;HEP;NEP",
  "ConsistencyInfo": "N4_VE11P_LATEST_20161021",
  "ConversionSoftware": "dcm2niix",
  "ConversionSoftwareVersion": "v1.0.20190410  GCC6.3.0",
  "DeviceSerialNumber": "51066",
  "DwellTime": 3e-05,
  "EchoNumber": 2,
  "EchoTime": 0.00765,
  "EchoTime1": 0.00519,
  "EchoTime2": 0.00765,
  "FlipAngle": 60,
  "ImageOrientationPatientDICOM": [0.997778, 0.00278867, 0.0665712, -3.4434e-11, 0.999124, -0.0418534],
  "ImageType": [
    "ORIGINAL",
    "PRIMARY",
    "P",
    "ND"
],
  "ImagingFrequency": 123.239,
  "InPlanePhaseEncodingDirectionDICOM": "ROW",
  "InstitutionAddress": "Blackburn_Road_770_Clayton_Victoria_AU_3168",
  "InstitutionName": "MONASH_BIOMEDICAL_IMAGING",
  "InstitutionalDepartmentName": "Department",
  "MRAcquisitionType": "2D",
  "MagneticFieldStrength": 3,
  "Manufacturer": "Siemens",
  "ManufacturersModelName": "Biograph_mMR",
  "Modality": "MR",
  "PartialFourier": 1,
  "PatientPosition": "HFS",
  "PercentPhaseFOV": 100,
  "PhaseEncodingDirection": "i",
  "PhaseEncodingSteps": 64,
  "PhaseResolution": 1,
  "PixelBandwidth": 260,
  "ProcedureStepDescription": "MR-PET_Scan",
  "ProtocolName": "Head_gre_field_mapping",
  "PulseSequenceDetails": "%SiemensSeq%_gre_field_mapping",
  "ReceiveCoilName": "HeadNeck_MRPET",
  "ReconMatrixPE": 64,
  "RepetitionTime": 0.488,
  "SAR": 0.119239,
  "ScanningSequence": "GR",
  "SequenceName": "_fm2d2r",
  "SequenceVariant": "SP",
  "SeriesDescription": "Head_gre_field_mapping",
  "SeriesNumber": 9,
  "ShimSetting": [-8324, -969, -3817, 349, -319, 225, -401, -227],
  "SliceThickness": 3,
  "SliceTiming": [0.0007325, -0.001, -0.001, -0.001, -0.001, -0.001, -0.001, -0.001, -0.001, -0.001, -0.001, -0.001, -0.001, -0.001, -0.001, -0.001, -0.001, -0.001, -0.001, -0.001, -0.001, -0.001, -0.001, -0.001, -0.001, -0.001, -0.001, -0.001, -0.001, -0.001, -0.001, -0.001, -0.001, -0.001, -0.001, -0.001, -0.001, -0.001, -0.001, -0.001, -0.001, -0.001, -0.001, -0.001],
  "SoftwareVersions": "syngo_MR_E11",
  "SpacingBetweenSlices": 3,
  "StationName": "MRC51066",
  "TxRefAmp": 300.449,
  "dcmmeta_affine": [
    [-2.9621527194976807, -1.022259360494715e-10, 0.1998887062072754, 90.52042388916016],
    [-0.008278874680399895, 2.966148614883423, -0.12528038024902344, -68.99685668945312],
    [0.19763317704200745, 0.12425227463245392, 2.9907150268554688, -41.48530197143555],
    [0.0, 0.0, 0.0, 1.0]
],
  "dcmmeta_reorient_transform": [
    [0.0, -1.0, 0.0, 63.0],
    [1.0, 0.0, 0.0, 0.0],
    [0.0, 0.0, -1.0, 43.0],
    [0.0, 0.0, 0.0, 1.0]
],
  "dcmmeta_shape": [64, 64, 44],
  "dcmmeta_slice_dim": 2,
  "dcmmeta_version": 0.6,
  "global": {
    "const": {
      "AcquisitionMatrix": [0, 64, 64, 0],
      "AcquisitionNumber": 1,
      "Allergies": "None",
      "AngioFlag": "N",
      "BitsAllocated": 16,
      "BitsStored": 12,
      "BodyPartExamined": "BRAIN",
      "Columns": 64,
      "EchoNumbers": 2,
      "EchoTime": 7.65,
      "EchoTrainLength": 0,
      "FlipAngle": 60.0,
      "HighBit": 11,
      "ImageOrientationPatient": [0.99777778180696, 0.00278867347151, 0.06657117568935, -3.4434e-11, 0.99912376265088, -0.0418533977874],
      "ImageType": [
        "ORIGINAL",
        "PRIMARY",
        "P",
        "ND"
],
      "ImagedNucleus": "1H",
      "ImagingFrequency": 123.239482,
      "InPlanePhaseEncodingDirection": "ROW",
      "MRAcquisitionType": "2D",
      "MagneticFieldStrength": 3.0,
      "Manufacturer": "SIEMENS",
      "ManufacturerModelName": "Biograph_mMR",
      "MedicalAlerts": "None",
      "Modality": "MR",
      "NumberOfAverages": 1.0,
      "NumberOfPhaseEncodingSteps": 64,
      "PercentPhaseFieldOfView": 100.0,
      "PercentSampling": 100.0,
      "PerformedProcedureStepStartTime": "122655.550000",
      "PhotometricInterpretation": "MONOCHROME2",
      "PixelBandwidth": 260.0,
      "PixelRepresentation": 0,
      "PixelSpacing": [2.96875, 2.96875],
      "PregnancyStatus": 4,
      "ProtocolName": "Head_gre_field_mapping",
      "RepetitionTime": 488.0,
      "RequestAttributesSequence": [
        {
          "RequestedProcedureID": "MMH001",
          "ScheduledProcedureStepDescription": "MR-PET Scan",
          "ScheduledProcedureStepID": "001"}
],
      "RescaleIntercept": -4096.0,
      "RescaleSlope": 2.0,
      "RescaleType": "US",
      "Rows": 64,
      "SAR": 0.1192394318927,
      "SamplesPerPixel": 1,
      "ScanningSequence": "GR",
      "SequenceName": "*fm2d2r",
      "SequenceVariant": "SP",
      "SeriesDescription": "Head_gre_field_mapping",
      "SeriesNumber": 9,
      "SeriesTime": "124924.172000",
      "SliceThickness": 3.0,
      "SoftwareVersions": "syngo MR E11",
      "SpacingBetweenSlices": 3.0,
      "SpecificCharacterSet": "ISO_IR 100",
      "StudyID": "MMH001",
      "StudyTime": "122655.420000",
      "TransmitCoilName": "Body",
      "VariableFlipAngleFlag": "N",
      "WindowCenterWidthExplanation": "Algo1",
      "dBdt": 0.0},
    "slices": {
      "AcquisitionTime": ["124822.037500", "124821.792500", "124822.047500", "124821.805000", "124822.060000", "124821.815000", "124822.070000", "124821.825000", "124822.080000", "124821.837500", "124822.092500", "124821.847500", "124822.102500", "124821.860000", "124822.115000", "124821.870000", "124822.125000", "124821.882500", "124822.137500", "124821.892500", "124822.147500", "124821.902500", "124822.157500", "124821.915000", "124822.170000", "124821.925000", "124822.180000", "124821.937500", "124822.192500", "124821.947500", "124822.202500", "124821.960000", "124822.215000", "124821.970000", "124822.225000", "124821.982500", "124822.237500", "124821.992500", "124822.247500", "124822.002500", "124822.257500", "124822.015000", "124822.270000", "124822.025000"],
      "ContentTime": ["124924.208000", "124924.174000", "124924.210000", "124924.175000", "124924.211000", "124924.177000", "124924.213000", "124924.179000", "124924.214000", "124924.180000", "124924.216000", "124924.182000", "124924.217000", "124924.183000", "124924.219000", "124924.185000", "124924.221000", "124924.186000", "124924.222000", "124924.188000", "124924.224000", "124924.190000", "124924.225000", "124924.191000", "124924.227000", "124924.193000", "124924.228000", "124924.194000", "124924.230000", "124924.196000", "124924.231000", "124924.197000", "124924.233000", "124924.199000", "124924.235000", "124924.200000", "124924.236000", "124924.202000", "124924.238000", "124924.203000", "124924.239000", "124924.205000", "124924.241000", "124924.207000"],
      "CsaImage.ICE_Dims": [
        "X_2_1_1_1_1_1_23_1_1_1_1_72",
        "X_2_1_1_1_1_1_1_1_1_2_1_72",
        "X_2_1_1_1_1_1_24_1_1_3_1_72",
        "X_2_1_1_1_1_1_2_1_1_4_1_72",
        "X_2_1_1_1_1_1_25_1_1_5_1_72",
        "X_2_1_1_1_1_1_3_1_1_6_1_72",
        "X_2_1_1_1_1_1_26_1_1_7_1_72",
        "X_2_1_1_1_1_1_4_1_1_8_1_72",
        "X_2_1_1_1_1_1_27_1_1_9_1_72",
        "X_2_1_1_1_1_1_5_1_1_10_1_72",
        "X_2_1_1_1_1_1_28_1_1_11_1_72",
        "X_2_1_1_1_1_1_6_1_1_12_1_72",
        "X_2_1_1_1_1_1_29_1_1_13_1_72",
        "X_2_1_1_1_1_1_7_1_1_14_1_72",
        "X_2_1_1_1_1_1_30_1_1_15_1_72",
        "X_2_1_1_1_1_1_8_1_1_16_1_72",
        "X_2_1_1_1_1_1_31_1_1_17_1_72",
        "X_2_1_1_1_1_1_9_1_1_18_1_72",
        "X_2_1_1_1_1_1_32_1_1_19_1_72",
        "X_2_1_1_1_1_1_10_1_1_20_1_72",
        "X_2_1_1_1_1_1_33_1_1_21_1_72",
        "X_2_1_1_1_1_1_11_1_1_22_1_72",
        "X_2_1_1_1_1_1_34_1_1_23_1_72",
        "X_2_1_1_1_1_1_12_1_1_24_1_72",
        "X_2_1_1_1_1_1_35_1_1_25_1_72",
        "X_2_1_1_1_1_1_13_1_1_26_1_72",
        "X_2_1_1_1_1_1_36_1_1_27_1_72",
        "X_2_1_1_1_1_1_14_1_1_28_1_72",
        "X_2_1_1_1_1_1_37_1_1_29_1_72",
        "X_2_1_1_1_1_1_15_1_1_30_1_72",
        "X_2_1_1_1_1_1_38_1_1_31_1_72",
        "X_2_1_1_1_1_1_16_1_1_32_1_72",
        "X_2_1_1_1_1_1_39_1_1_33_1_72",
        "X_2_1_1_1_1_1_17_1_1_34_1_72",
        "X_2_1_1_1_1_1_40_1_1_35_1_72",
        "X_2_1_1_1_1_1_18_1_1_36_1_72",
        "X_2_1_1_1_1_1_41_1_1_37_1_72",
        "X_2_1_1_1_1_1_19_1_1_38_1_72",
        "X_2_1_1_1_1_1_42_1_1_39_1_72",
        "X_2_1_1_1_1_1_20_1_1_40_1_72",
        "X_2_1_1_1_1_1_43_1_1_41_1_72",
        "X_2_1_1_1_1_1_21_1_1_42_1_72",
        "X_2_1_1_1_1_1_44_1_1_43_1_72",
        "X_2_1_1_1_1_1_22_1_1_44_1_72"
],
      "CsaImage.ProtocolSliceNumber": [0, 1, 2, 3, 4, 5, 6, 7, 8, 9, 10, 11, 12, 13, 14, 15, 16, 17, 18, 19, 20, 21, 22, 23, 24, 25, 26, 27, 28, 29, 30, 31, 32, 33, 34, 35, 36, 37, 38, 39, 40, 41, 42, 43],
      "CsaImage.SliceMeasurementDuration": [61487.5, 61487.5, 61487.5, 61487.5, 61487.5, 61487.5, 61487.5, 61490.0, 61490.0, 61487.5, 61487.5, 61487.5, 61487.5, 61487.5, 61487.5, 61487.5, 61487.5, 61487.5, 61487.5, 61487.5, 61487.5, 61490.0, 61490.0, 61487.5, 61487.5, 61490.0, 61490.0, 61487.5, 61487.5, 61487.5, 61487.5, 61487.5, 61487.5, 61487.5, 61487.5, 61487.5, 61487.5, 61487.5, 61487.5, 61490.0, 61490.0, 61487.5, 61487.5, 61487.5],
      "CsaImage.SlicePosition_PCS": [
        [-90.52042518, -117.87053946, -33.65721371],
        [-90.72031389, -117.74525908, -30.66650441],
        [-90.92020235, -117.6199787, -27.67579319],
        [-91.12009106, -117.49469642, -24.68508198],
        [-91.31997977, -117.36941604, -21.69437268],
        [-91.51986847, -117.24413375, -18.70366147],
        [-91.71975718, -117.11885337, -15.71295121],
        [-91.91964588, -116.99357108, -12.72224095],
        [-92.11953459, -116.8682907, -9.73153069],
        [-92.3194233, -116.74301032, -6.74081995],
        [-92.51931177, -116.61772803, -3.75010958],
        [-92.71920047, -116.49244765, -0.75939908],
        [-92.9190893, -116.36716536, 2.2313113],
        [-93.11897788, -116.24188498, 5.22202203],
        [-93.31886659, -116.1166046, 8.21273277],
        [-93.5187553, -115.99132232, 11.20344303],
        [-93.718644, -115.86604194, 14.19415233],
        [-93.91853265, -115.74075965, 17.18486354],
        [-94.11842136, -115.61547927, 20.17557476],
        [-94.31831003, -115.49019889, 23.16628406],
        [-94.51819874, -115.3649166, 26.15699527],
        [-94.71808741, -115.23963622, 29.14770649],
        [-94.91797609, -115.11435393, 32.1384177],
        [-95.11786477, -114.98907355, 35.12912509],
        [-95.31775347, -114.86379126, 38.11983631],
        [-95.51764218, -114.73851088, 41.11054752],
        [-95.71753083, -114.6132305, 44.10125873],
        [-95.91741953, -114.48794822, 47.09196994],
        [-96.11730824, -114.36266784, 50.08267734],
        [-96.31719694, -114.23738555, 53.07338855],
        [-96.51708553, -114.11210517, 56.06409977],
        [-96.71697424, -113.98682479, 59.05481098],
        [-96.91686306, -113.8615425, 62.04551837],
        [-97.11675153, -113.73626212, 65.0362334],
        [-97.31664024, -113.61097983, 68.0269408],
        [-97.51652894, -113.48569945, 71.01765583],
        [-97.71641765, -113.36041716, 74.00836322],
        [-97.91630636, -113.23513678, 76.99907062],
        [-98.11619506, -113.1098564, 79.98978565],
        [-98.31608377, -112.98457412, 82.98049305],
        [-98.51597247, -112.85929374, 85.97120807],
        [-98.71586118, -112.73401145, 88.96191547],
        [-98.91574989, -112.60873107, 91.95262287],
        [-99.11563859, -112.48345069, 94.94333789]
],
      "CsaImage.TimeAfterStart": [0.7325, 0.49, 0.745, 0.5, 0.755, 0.5125, 0.7675, 0.5225, 0.7775, 0.535, 0.79, 0.545, 0.8, 0.5575, 0.8125, 0.5675, 0.8225, 0.5775, 0.8325, 0.59, 0.845, 0.6, 0.855, 0.6125, 0.8675, 0.6225, 0.8775, 0.635, 0.89, 0.645, 0.9, 0.655, 0.91, 0.6675, 0.9225, 0.6775, 0.9325, 0.69, 0.945, 0.7, 0.955, 0.7125, 0.9675, 0.7225],
      "ImagePositionPatient": [
        [-90.52042517995, -117.87053946385, -33.657213711473],
        [-90.720313886157, -117.7452590836, -30.666504406663],
        [-90.920202353946, -117.61997870336, -27.675793194505],
        [-91.120091060153, -117.49469641576, -24.685081982347],
        [-91.319979766361, -117.36941603551, -21.694372677537],
        [-91.519868472568, -117.24413374791, -18.703661465379],
        [-91.719757178775, -117.11885336766, -15.712951206895],
        [-91.919645884982, -116.99357108006, -12.722240948411],
        [-92.11953459119, -116.86829069982, -9.7315306899273],
        [-92.319423297397, -116.74301031957, -6.7408199546063],
        [-92.519311765186, -116.61772803197, -3.7501095769131],
        [-92.719200471393, -116.49244765172, -0.7593990800107],
        [-92.919089296809, -116.36716536412, 2.2313112976825],
        [-93.118977883807, -116.24188498387, 5.2220220330036],
        [-93.318866590015, -116.11660460362, 8.2127327683246],
        [-93.518755296222, -115.99132231603, 11.203443026809],
        [-93.718644002429, -115.86604193578, 14.194152331618],
        [-93.918532649032, -115.74075964818, 17.184863543776],
        [-94.118421355239, -115.61547926793, 20.175574755934],
        [-94.318310031644, -115.49019888768, 23.166284060744],
        [-94.518198737851, -115.36491660008, 26.156995272902],
        [-94.718087406806, -115.23963621984, 29.14770648506],
        [-94.917976090661, -115.11435393224, 32.138417697219],
        [-95.117864767066, -114.98907355199, 35.12912509468],
        [-95.317753473274, -114.86379126439, 38.119836306838],
        [-95.517642179481, -114.73851088414, 41.110547518996],
        [-95.717530826083, -114.61323050389, 44.101258731154],
        [-95.917419532291, -114.4879482163, 47.091969943312],
        [-96.117308238498, -114.36266783605, 50.082677340773],
        [-96.317196944705, -114.23738554845, 53.073388552932],
        [-96.517085531703, -114.1121051682, 56.06409976509],
        [-96.716974237911, -113.98682478795, 59.054810977248],
        [-96.916863063327, -113.86154250035, 62.045518374709],
        [-97.116751531116, -113.7362621201, 65.036233401564],
        [-97.316640237323, -113.61097983251, 68.026940799025],
        [-97.51652894353, -113.48569945226, 71.017655825881],
        [-97.716417649738, -113.36041716466, 74.008363223342],
        [-97.916306355945, -113.23513678441, 76.999070620803],
        [-98.116195062152, -113.10985640416, 79.989785647658],
        [-98.316083768359, -112.98457411656, 82.980493045119],
        [-98.515972474567, -112.85929373631, 85.971208071975],
        [-98.715861180774, -112.73401144872, 88.961915469435],
        [-98.915749886981, -112.60873106847, 91.952622866896],
        [-99.115638593189, -112.48345068822, 94.943337893752]
],
      "InstanceCreationTime": ["124924.208000", "124924.174000", "124924.210000", "124924.175000", "124924.211000", "124924.177000", "124924.213000", "124924.179000", "124924.214000", "124924.180000", "124924.216000", "124924.182000", "124924.217000", "124924.183000", "124924.219000", "124924.185000", "124924.221000", "124924.186000", "124924.222000", "124924.188000", "124924.224000", "124924.190000", "124924.225000", "124924.191000", "124924.227000", "124924.193000", "124924.228000", "124924.194000", "124924.230000", "124924.196000", "124924.231000", "124924.197000", "124924.233000", "124924.199000", "124924.235000", "124924.200000", "124924.236000", "124924.202000", "124924.238000", "124924.203000", "124924.239000", "124924.205000", "124924.241000", "124924.207000"],
      "InstanceNumber": [1, 2, 3, 4, 5, 6, 7, 8, 9, 10, 11, 12, 13, 14, 15, 16, 17, 18, 19, 20, 21, 22, 23, 24, 25, 26, 27, 28, 29, 30, 31, 32, 33, 34, 35, 36, 37, 38, 39, 40, 41, 42, 43, 44],
      "LargestImagePixelValue": [4093, 4089, 4093, 4093, 4092, 4092, 4087, 4094, 4091, 4073, 4040, 4093, 4075, 4076, 4084, 3900, 3875, 4041, 3919, 4086, 4067, 4088, 4036, 4062, 4004, 4085, 4066, 4079, 4086, 4093, 4080, 4081, 4095, 4079, 4088, 4091, 4086, 4089, 4093, 4095, 4094, 4095, 4094, 4094],
      "SliceLocation": [-32.44397760303, -29.443978800627, -26.443978112667, -23.44397732917, -20.443978526768, -17.443977743271, -14.443977990147, -11.443978157371, -8.4439784042467, -5.4439781757619, -2.4439782400318, 0.55602175077264, 3.5560217103314, 6.5560219308733, 9.556022159358, 12.556021992134, 15.556020794537, 18.556021574062, 21.556022277907, 24.556021078325, 27.556021861822, 30.556022563185, 33.556023345193, 36.556020244167, 39.556021027664, 42.55602173151, 45.556022431383, 48.55602321488, 51.556020115841, 54.556020899338, 57.55602159524, 60.556022299086, 63.55601928764, 66.556023778485, 69.556020759097, 72.556025265827, 75.556022246439, 78.5560191474, 81.55602365413, 84.556020634742, 87.556025141472, 90.556022122084, 93.556019023045, 96.556023529775],
      "SmallestImagePixelValue": [15, 7, 2, 8, 2, 1, 8, 2, 7, 4, 1, 11, 22, 20, 18, 213, 72, 17, 8, 3, 122, 97, 13, 113, 18, 14, 30, 4, 22, 75, 16, 6, 6, 11, 3, 1, 5, 2, 0, 1, 0, 1, 1, 1],
      "WindowCenter": [-142.0, -202.0, -158.0, -204.0, -250.0, -228.0, -136.0, -64.0, -86.0, -90.0, -128.0, -166.0, -118.0, -128.0, -76.0, 198.0, -82.0, -172.0, -44.0, -136.0, -4.0, 14.0, -112.0, -100.0, -98.0, 20.0, -88.0, -106.0, -110.0, -126.0, -150.0, -172.0, -196.0, -190.0, -216.0, -262.0, -286.0, -334.0, -390.0, -444.0, -440.0, -358.0, -246.0, -216.0],
      "WindowWidth": [5974.0, 5892.0, 5840.0, 5840.0, 5722.0, 5714.0, 5730.0, 5778.0, 5682.0, 5644.0, 5614.0, 5334.0, 5336.0, 5136.0, 5100.0, 5194.0, 4916.0, 4516.0, 4940.0, 4484.0, 4904.0, 4934.0, 4454.0, 4444.0, 4436.0, 4758.0, 4424.0, 4438.0, 4438.0, 4454.0, 4460.0, 4488.0, 4508.0, 4508.0, 4540.0, 4594.0, 4616.0, 4702.0, 4762.0, 4836.0, 4942.0, 5992.0, 6146.0, 6364.0]
    }
  }
}