{
  "AcquisitionMatrixPE": 64,
  "AcquisitionNumber": 1,
  "AcquisitionTime": "10:21:47.380000",
  "BaseResolution": 64,
  "BodyPartExamined": "BRAIN",
  "CoilString": "HEA;HEP;NEP",
  "ConsistencyInfo": "N4_VE11P_LATEST_20161021",
  "ConversionSoftware": "dcm2niix",
  "ConversionSoftwareVersion": "v1.0.20190410  GCC6.3.0",
  "DeviceSerialNumber": "51066",
  "DwellTime": 3e-05,
  "EchoNumber": 2,
  "EchoTime": 0.00765,
  "EchoTime1": 0.00519,
  "EchoTime2": 0.00765,
  "FlipAngle": 60,
  "ImageOrientationPatientDICOM": [1, 4.768e-12, -1.114e-12, -4.897e-12, 0.973605, -0.228239],
  "ImageType": [
    "ORIGINAL",
    "PRIMARY",
    "P",
    "ND"
],
  "ImagingFrequency": 123.24,
  "InPlanePhaseEncodingDirectionDICOM": "ROW",
  "InstitutionAddress": "Blackburn_Road_770_Clayton_Victoria_AU_3168",
  "InstitutionName": "MONASH_BIOMEDICAL_IMAGING",
  "InstitutionalDepartmentName": "Department",
  "MRAcquisitionType": "2D",
  "MagneticFieldStrength": 3,
  "Manufacturer": "Siemens",
  "ManufacturersModelName": "Biograph_mMR",
  "Modality": "MR",
  "PartialFourier": 1,
  "PatientPosition": "HFS",
  "PercentPhaseFOV": 100,
  "PhaseEncodingDirection": "i",
  "PhaseEncodingSteps": 64,
  "PhaseResolution": 1,
  "PixelBandwidth": 260,
  "ProcedureStepDescription": "MR-PET_Scan",
  "ProtocolName": "Head_gre_field_mapping",
  "PulseSequenceDetails": "%SiemensSeq%_gre_field_mapping",
  "ReceiveCoilName": "HeadNeck_MRPET",
  "ReconMatrixPE": 64,
  "RepetitionTime": 0.488,
  "SAR": 0.127749,
  "ScanningSequence": "GR",
  "SequenceName": "_fm2d2r",
  "SequenceVariant": "SP",
  "SeriesDescription": "Head_gre_field_mapping",
  "SeriesNumber": 8,
  "ShimSetting": [-8322, -715, -3645, 1154, -410, 113, -2366, -160],
  "SliceThickness": 3,
  "SliceTiming": [0.000735, -0.001, -0.001, -0.001, -0.001, -0.001, -0.001, -0.001, -0.001, -0.001, -0.001, -0.001, -0.001, -0.001, -0.001, -0.001, -0.001, -0.001, -0.001, -0.001, -0.001, -0.001, -0.001, -0.001, -0.001, -0.001, -0.001, -0.001, -0.001, -0.001, -0.001, -0.001, -0.001, -0.001, -0.001, -0.001, -0.001, -0.001, -0.001, -0.001, -0.001, -0.001, -0.001, -0.001],
  "SoftwareVersions": "syngo_MR_E11",
  "SpacingBetweenSlices": 3,
  "StationName": "MRC51066",
  "TxRefAmp": 321.4,
  "dcmmeta_affine": [
    [-2.96875, -1.4537968918981736e-11, 0.0, 95.0],
    [-1.4155000088722502e-11, 2.890390396118164, -0.6847162246704102, -57.32622528076172],
    [-3.3071874232237786e-12, 0.6775838136672974, 2.9208145141601562, -75.32801055908203],
    [0.0, 0.0, 0.0, 1.0]
],
  "dcmmeta_reorient_transform": [
    [0.0, -1.0, 0.0, 63.0],
    [1.0, 0.0, 0.0, 0.0],
    [0.0, 0.0, -1.0, 43.0],
    [0.0, 0.0, 0.0, 1.0]
],
  "dcmmeta_shape": [64, 64, 44],
  "dcmmeta_slice_dim": 2,
  "dcmmeta_version": 0.6,
  "global": {
    "const": {
      "AcquisitionMatrix": [0, 64, 64, 0],
      "AcquisitionNumber": 1,
      "Allergies": "None",
      "AngioFlag": "N",
      "BitsAllocated": 16,
      "BitsStored": 12,
      "BodyPartExamined": "BRAIN",
      "Columns": 64,
      "EchoNumbers": 2,
      "EchoTime": 7.65,
      "EchoTrainLength": 0,
      "FlipAngle": 60.0,
      "HighBit": 11,
      "ImageOrientationPatient": [1.0, 4.768e-12, -1.114e-12, -4.897e-12, 0.97360519231985, -0.2282387554466],
      "ImageType": [
        "ORIGINAL",
        "PRIMARY",
        "P",
        "ND"
],
      "ImagedNucleus": "1H",
      "ImagingFrequency": 123.239567,
      "InPlanePhaseEncodingDirection": "ROW",
      "MRAcquisitionType": "2D",
      "MagneticFieldStrength": 3.0,
      "Manufacturer": "SIEMENS",
      "ManufacturerModelName": "Biograph_mMR",
      "MedicalAlerts": "None",
      "Modality": "MR",
      "NumberOfAverages": 1.0,
      "NumberOfPhaseEncodingSteps": 64,
      "PercentPhaseFieldOfView": 100.0,
      "PercentSampling": 100.0,
      "PerformedProcedureStepStartTime": "100028.040000",
      "PhotometricInterpretation": "MONOCHROME2",
      "PixelBandwidth": 260.0,
      "PixelRepresentation": 0,
      "PixelSpacing": [2.96875, 2.96875],
      "PregnancyStatus": 4,
      "ProtocolName": "Head_gre_field_mapping",
      "RepetitionTime": 488.0,
      "RequestAttributesSequence": [
        {
          "RequestedProcedureID": "MMH001",
          "ScheduledProcedureStepDescription": "MR-PET Scan",
          "ScheduledProcedureStepID": "001"}
],
      "RescaleIntercept": -4096.0,
      "RescaleSlope": 2.0,
      "RescaleType": "US",
      "Rows": 64,
      "SAR": 0.12774949444194,
      "SamplesPerPixel": 1,
      "ScanningSequence": "GR",
      "SequenceName": "*fm2d2r",
      "SequenceVariant": "SP",
      "SeriesDescription": "Head_gre_field_mapping",
      "SeriesNumber": 8,
      "SeriesTime": "102249.323000",
      "SliceThickness": 3.0,
      "SoftwareVersions": "syngo MR E11",
      "SpacingBetweenSlices": 3.0,
      "SpecificCharacterSet": "ISO_IR 100",
      "StudyID": "MMH001",
      "StudyTime": "100027.870000",
      "TransmitCoilName": "Body",
      "VariableFlipAngleFlag": "N",
      "WindowCenterWidthExplanation": "Algo1",
      "dBdt": 0.0},
    "slices": {
      "AcquisitionTime": ["102147.380000", "102147.137500", "102147.392500", "102147.147500", "102147.402500", "102147.157500", "102147.412500", "102147.170000", "102147.425000", "102147.180000", "102147.435000", "102147.192500", "102147.447500", "102147.202500", "102147.457500", "102147.215000", "102147.470000", "102147.225000", "102147.480000", "102147.235000", "102147.492500", "102147.247500", "102147.502500", "102147.257500", "102147.512500", "102147.270000", "102147.525000", "102147.280000", "102147.535000", "102147.292500", "102147.547500", "102147.302500", "102147.557500", "102147.315000", "102147.570000", "102147.325000", "102147.580000", "102147.335000", "102147.590000", "102147.347500", "102147.602500", "102147.357500", "102147.612500", "102147.370000"],
      "ContentTime": ["102249.366000", "102249.325000", "102249.368000", "102249.327000", "102249.370000", "102249.329000", "102249.372000", "102249.330000", "102249.375000", "102249.332000", "102249.377000", "102249.334000", "102249.379000", "102249.335000", "102249.380000", "102249.337000", "102249.382000", "102249.339000", "102249.384000", "102249.340000", "102249.385000", "102249.342000", "102249.388000", "102249.344000", "102249.392000", "102249.345000", "102249.401000", "102249.347000", "102249.404000", "102249.348000", "102249.406000", "102249.352000", "102249.407000", "102249.354000", "102249.409000", "102249.356000", "102249.411000", "102249.357000", "102249.412000", "102249.359000", "102249.414000", "102249.361000", "102249.417000", "102249.364000"],
      "CsaImage.ICE_Dims": [
        "X_2_1_1_1_1_1_23_1_1_1_1_25",
        "X_2_1_1_1_1_1_1_1_1_2_1_25",
        "X_2_1_1_1_1_1_24_1_1_3_1_25",
        "X_2_1_1_1_1_1_2_1_1_4_1_25",
        "X_2_1_1_1_1_1_25_1_1_5_1_25",
        "X_2_1_1_1_1_1_3_1_1_6_1_25",
        "X_2_1_1_1_1_1_26_1_1_7_1_25",
        "X_2_1_1_1_1_1_4_1_1_8_1_25",
        "X_2_1_1_1_1_1_27_1_1_9_1_25",
        "X_2_1_1_1_1_1_5_1_1_10_1_25",
        "X_2_1_1_1_1_1_28_1_1_11_1_25",
        "X_2_1_1_1_1_1_6_1_1_12_1_25",
        "X_2_1_1_1_1_1_29_1_1_13_1_25",
        "X_2_1_1_1_1_1_7_1_1_14_1_25",
        "X_2_1_1_1_1_1_30_1_1_15_1_25",
        "X_2_1_1_1_1_1_8_1_1_16_1_25",
        "X_2_1_1_1_1_1_31_1_1_17_1_25",
        "X_2_1_1_1_1_1_9_1_1_18_1_25",
        "X_2_1_1_1_1_1_32_1_1_19_1_25",
        "X_2_1_1_1_1_1_10_1_1_20_1_25",
        "X_2_1_1_1_1_1_33_1_1_21_1_25",
        "X_2_1_1_1_1_1_11_1_1_22_1_25",
        "X_2_1_1_1_1_1_34_1_1_23_1_25",
        "X_2_1_1_1_1_1_12_1_1_24_1_25",
        "X_2_1_1_1_1_1_35_1_1_25_1_25",
        "X_2_1_1_1_1_1_13_1_1_26_1_25",
        "X_2_1_1_1_1_1_36_1_1_27_1_25",
        "X_2_1_1_1_1_1_14_1_1_28_1_25",
        "X_2_1_1_1_1_1_37_1_1_29_1_25",
        "X_2_1_1_1_1_1_15_1_1_30_1_25",
        "X_2_1_1_1_1_1_38_1_1_31_1_25",
        "X_2_1_1_1_1_1_16_1_1_32_1_25",
        "X_2_1_1_1_1_1_39_1_1_33_1_25",
        "X_2_1_1_1_1_1_17_1_1_34_1_25",
        "X_2_1_1_1_1_1_40_1_1_35_1_25",
        "X_2_1_1_1_1_1_18_1_1_36_1_25",
        "X_2_1_1_1_1_1_41_1_1_37_1_25",
        "X_2_1_1_1_1_1_19_1_1_38_1_25",
        "X_2_1_1_1_1_1_42_1_1_39_1_25",
        "X_2_1_1_1_1_1_20_1_1_40_1_25",
        "X_2_1_1_1_1_1_43_1_1_41_1_25",
        "X_2_1_1_1_1_1_21_1_1_42_1_25",
        "X_2_1_1_1_1_1_44_1_1_43_1_25",
        "X_2_1_1_1_1_1_22_1_1_44_1_25"
],
      "CsaImage.ProtocolSliceNumber": [0, 1, 2, 3, 4, 5, 6, 7, 8, 9, 10, 11, 12, 13, 14, 15, 16, 17, 18, 19, 20, 21, 22, 23, 24, 25, 26, 27, 28, 29, 30, 31, 32, 33, 34, 35, 36, 37, 38, 39, 40, 41, 42, 43],
      "CsaImage.SliceMeasurementDuration": [61487.5, 61487.5, 61487.5, 61487.5, 61487.5, 61490.0, 61490.0, 61487.5, 61487.5, 61487.5, 61490.0, 61487.5, 61487.5, 61487.5, 61487.5, 61487.5, 61487.5, 61487.5, 61487.5, 61490.0, 61487.5, 61487.5, 61487.5, 61490.0, 61490.0, 61487.5, 61487.5, 61487.5, 61487.5, 61487.5, 61487.5, 61487.5, 61487.5, 61487.5, 61487.5, 61487.5, 61487.5, 61490.0, 61490.0, 61487.5, 61487.5, 61487.5, 61487.5, 61487.5],
      "CsaImage.SlicePosition_PCS": [
        [-95.0, -124.76837218, -32.64027813],
        [-95.0, -124.083655, -29.7194598],
        [-95.0, -123.39893973, -26.79864529],
        [-95.0, -122.71422255, -23.87783078],
        [-95.0, -122.02950728, -20.95701626],
        [-95.0, -121.3447901, -18.03619793],
        [-95.0, -120.66007483, -15.11538342],
        [-95.0, -119.97535765, -12.1945689],
        [-95.0, -119.29064238, -9.27375248],
        [-95.0, -118.6059252, -6.35293606],
        [-95.0, -117.92120993, -3.43212155],
        [-95.0, -117.23649275, -0.51130513],
        [-95.0, -116.55177748, 2.40950939],
        [-95.0, -115.8670603, 5.33032581],
        [-95.0, -115.18234503, 8.25114128],
        [-95.0, -114.49762785, 11.17195675],
        [-95.0, -113.81291258, 14.09277221],
        [-95.0, -113.1281954, 17.01358768],
        [-95.0, -112.44348013, 19.93440351],
        [-95.0, -111.75876295, 22.85521909],
        [-95.0, -111.07404768, 25.77603456],
        [-95.0, -110.38933051, 28.69685003],
        [-95.0, -109.70461523, 31.61766597],
        [-95.0, -109.01989806, 34.53848144],
        [-95.0, -108.33518183, 37.45929691],
        [-95.0, -107.65046561, 40.38011333],
        [-95.0, -106.96574938, 43.30092785],
        [-95.0, -106.28103316, 46.22174427],
        [-95.0, -105.59631693, 49.14255878],
        [-95.0, -104.91160071, 52.0633752],
        [-95.0, -104.22688448, 54.98419162],
        [-95.0, -103.54216826, 57.90500614],
        [-95.0, -102.85745203, 60.82582065],
        [-95.0, -102.17273581, 63.74663898],
        [-95.0, -101.48801958, 66.6674535],
        [-95.0, -100.80330336, 69.58826801],
        [-95.0, -100.11858714, 72.50908252],
        [-95.0, -99.43387091, 75.42990085],
        [-95.0, -98.74915469, 78.35071537],
        [-95.0, -98.06443846, 81.27152988],
        [-95.0, -97.37972224, 84.19234821],
        [-95.0, -96.69500601, 87.11316272],
        [-95.0, -96.01028979, 90.03397724],
        [-95.0, -95.32557356, 92.95479175]
],
      "CsaImage.TimeAfterStart": [0.735, 0.49, 0.745, 0.5025, 0.7575, 0.5125, 0.7675, 0.525, 0.78, 0.535, 0.79, 0.5475, 0.8025, 0.5575, 0.8125, 0.5675, 0.8225, 0.58, 0.835, 0.59, 0.845, 0.6025, 0.8575, 0.6125, 0.8675, 0.625, 0.88, 0.635, 0.89, 0.645, 0.9, 0.6575, 0.9125, 0.6675, 0.9225, 0.68, 0.935, 0.69, 0.945, 0.7025, 0.9575, 0.7125, 0.9675, 0.725],
      "ImagePositionPatient": [
        [-94.999999999535, -124.76837217709, -32.640278132366],
        [-94.999999999535, -124.08365499874, -29.719459803508],
        [-94.999999999535, -123.39893972775, -26.798645289348],
        [-94.999999999535, -122.7142225494, -23.877830775188],
        [-94.999999999535, -122.02950727841, -20.957016261028],
        [-94.999999999535, -121.34479010006, -18.03619793217],
        [-94.999999999535, -120.66007482907, -15.11538341801],
        [-94.999999999535, -119.97535765072, -12.19456890385],
        [-94.999999999535, -119.29064237973, -9.2737524823413],
        [-94.999999999535, -118.60592520138, -6.3529360608325],
        [-94.999999999535, -117.92120993038, -3.4321215466724],
        [-94.999999999535, -117.23649275204, -0.5113051251636],
        [-94.999999999535, -116.55177748104, 2.4095093889966],
        [-94.999999999535, -115.8670603027, 5.3303258105054],
        [-94.999999999535, -115.1823450317, 8.2511412783399],
        [-94.999999999535, -114.49762785336, 11.171956746174],
        [-94.999999999535, -113.81291258236, 14.092772214009],
        [-94.999999999535, -113.12819540402, 17.013587681843],
        [-94.999999999535, -112.44348013302, 19.934403507306],
        [-94.999999999535, -111.75876295468, 22.855219094349],
        [-94.999999999535, -111.07404768368, 25.776034562184],
        [-94.999999999535, -110.38933050534, 28.696850030018],
        [-94.999999999535, -109.70461523434, 31.61766597469],
        [-94.999999999535, -109.01989805599, 34.538481442524],
        [-94.999999999535, -108.33518183132, 37.459296910359],
        [-94.999999999535, -107.65046560665, 40.380113331868],
        [-94.999999999535, -106.96574938198, 43.300927846028],
        [-94.999999999535, -106.28103315731, 46.221744267537],
        [-94.999999999535, -105.59631693264, 49.142558781697],
        [-94.999999999535, -104.91160070797, 52.063375203206],
        [-94.999999999535, -104.2268844833, 54.984191624714],
        [-94.999999999535, -103.54216825863, 57.905006138875],
        [-94.999999999535, -102.85745203396, 60.825820653035],
        [-94.999999999535, -102.17273580929, 63.746638981892],
        [-94.999999999535, -101.48801958462, 66.667453496052],
        [-94.999999999535, -100.80330335995, 69.588268010212],
        [-94.999999999535, -100.11858713528, 72.509082524373],
        [-94.999999999535, -99.433870910609, 75.42990085323],
        [-94.999999999535, -98.749154685939, 78.35071536739],
        [-94.999999999535, -98.064438461268, 81.27152988155],
        [-94.999999999535, -97.379722236598, 84.192348210408],
        [-94.999999999535, -96.695006011928, 87.113162724568],
        [-94.999999999535, -96.010289787257, 90.033977238728],
        [-94.999999999535, -95.325573562587, 92.954791752888]
],
      "InstanceCreationTime": ["102249.366000", "102249.325000", "102249.368000", "102249.327000", "102249.370000", "102249.329000", "102249.372000", "102249.330000", "102249.375000", "102249.332000", "102249.377000", "102249.334000", "102249.379000", "102249.335000", "102249.380000", "102249.337000", "102249.382000", "102249.339000", "102249.384000", "102249.340000", "102249.385000", "102249.342000", "102249.388000", "102249.344000", "102249.392000", "102249.345000", "102249.401000", "102249.347000", "102249.404000", "102249.348000", "102249.406000", "102249.352000", "102249.407000", "102249.354000", "102249.409000", "102249.356000", "102249.411000", "102249.357000", "102249.412000", "102249.359000", "102249.414000", "102249.361000", "102249.417000", "102249.364000"],
      "InstanceNumber": [1, 2, 3, 4, 5, 6, 7, 8, 9, 10, 11, 12, 13, 14, 15, 16, 17, 18, 19, 20, 21, 22, 23, 24, 25, 26, 27, 28, 29, 30, 31, 32, 33, 34, 35, 36, 37, 38, 39, 40, 41, 42, 43, 44],
      "LargestImagePixelValue": [4091, 4094, 4093, 4090, 4094, 4093, 4092, 4094, 4094, 4095, 4076, 4089, 4079, 4091, 4059, 4086, 4079, 4087, 4012, 4086, 4078, 4087, 4088, 4088, 4094, 4092, 4076, 4090, 4073, 4091, 4091, 4095, 4080, 4094, 4094, 4093, 4093, 4092, 4084, 4094, 4093, 4094, 4092, 4090],
      "SliceLocation": [-60.255722253237, -57.25571936582, -54.255720627743, -51.255721454335, -48.255722716258, -45.255719828841, -42.255721090764, -39.255721917356, -36.255721322275, -33.255720291863, -30.255721553786, -27.255720523373, -24.255721785296, -21.255720754884, -18.255721088305, -15.255720986395, -12.255721319815, -9.2557212179052, -6.2557212031376, -3.2557209851647, -0.2557213185855, 2.7442787833246, 5.744278914155, 8.7442790160651, 11.74427890031, 14.744279713057, 17.744278668799, 20.744279481546, 23.744278437288, 26.744279250035, 29.744280062782, 32.744279018525, 35.744277974267, 38.744280644019, 41.744279599761, 44.744278555503, 47.744277511246, 50.744280180997, 53.74427913674, 56.744278092482, 59.744280762233, 62.744279717976, 65.744278673718, 68.744277629461],
      "SmallestImagePixelValue": [3, 0, 2, 0, 5, 1, 8, 11, 0, 6, 4, 0, 4, 15, 3, 12, 5, 9, 2, 14, 7, 13, 7, 49, 0, 25, 0, 0, 18, 15, 0, 5, 7, 4, 10, 5, 0, 1, 0, 4, 3, 3, 0, 0],
      "WindowCenter": [-234.0, -256.0, -226.0, -208.0, -166.0, -110.0, -158.0, -234.0, -226.0, -232.0, -256.0, -216.0, -192.0, -160.0, -254.0, -152.0, -212.0, -214.0, -208.0, -214.0, -184.0, -102.0, -174.0, -188.0, -46.0, -204.0, -178.0, -94.0, -98.0, -136.0, -260.0, -124.0, -230.0, -100.0, -220.0, -250.0, -224.0, -248.0, -234.0, -300.0, -374.0, -394.0, -402.0, -354.0],
      "WindowWidth": [5624.0, 5630.0, 5692.0, 5864.0, 5726.0, 5946.0, 5734.0, 5824.0, 5692.0, 5728.0, 5402.0, 5532.0, 5284.0, 5388.0, 4532.0, 5044.0, 4536.0, 4560.0, 4546.0, 4566.0, 4534.0, 4972.0, 4530.0, 4546.0, 5008.0, 4566.0, 4544.0, 5100.0, 5036.0, 5118.0, 4626.0, 5244.0, 4618.0, 5180.0, 4624.0, 4668.0, 4658.0, 4708.0, 4694.0, 4784.0, 4820.0, 4908.0, 4914.0, 5790.0]
    }
  }
}