{
  "AcquisitionMatrixPE": 64,
  "AcquisitionNumber": 1,
  "AcquisitionTime": "10:12:18.815000",
  "BaseResolution": 64,
  "BodyPartExamined": "BRAIN",
  "CoilString": "HEA;HEP;NEP",
  "ConsistencyInfo": "N4_VE11P_LATEST_20161021",
  "ConversionSoftware": "dcm2niix",
  "ConversionSoftwareVersion": "v1.0.20190410  GCC6.3.0",
  "DeviceSerialNumber": "51066",
  "DwellTime": 3e-05,
  "EchoNumber": 2,
  "EchoTime": 0.00765,
  "EchoTime1": 0.00519,
  "EchoTime2": 0.00765,
  "FlipAngle": 60,
  "ImageOrientationPatientDICOM": [0.999995, -9.0817e-05, -0.00307187, -6.36e-12, 0.999563, -0.0295511],
  "ImageType": [
    "ORIGINAL",
    "PRIMARY",
    "P",
    "ND"
],
  "ImagingFrequency": 123.239,
  "InPlanePhaseEncodingDirectionDICOM": "ROW",
  "InstitutionAddress": "Blackburn_Road_770_Clayton_Victoria_AU_3168",
  "InstitutionName": "MONASH_BIOMEDICAL_IMAGING",
  "InstitutionalDepartmentName": "Department",
  "MRAcquisitionType": "2D",
  "MagneticFieldStrength": 3,
  "Manufacturer": "Siemens",
  "ManufacturersModelName": "Biograph_mMR",
  "Modality": "MR",
  "PartialFourier": 1,
  "PatientPosition": "HFS",
  "PercentPhaseFOV": 100,
  "PhaseEncodingDirection": "i",
  "PhaseEncodingSteps": 64,
  "PhaseResolution": 1,
  "PixelBandwidth": 260,
  "ProcedureStepDescription": "MR-PET_Scan",
  "ProtocolName": "Head_gre_field_mapping",
  "PulseSequenceDetails": "%SiemensSeq%_gre_field_mapping",
  "ReceiveCoilName": "HeadNeck_MRPET",
  "ReconMatrixPE": 64,
  "RepetitionTime": 0.488,
  "SAR": 0.116622,
  "ScanningSequence": "GR",
  "SequenceName": "_fm2d2r",
  "SequenceVariant": "SP",
  "SeriesDescription": "Head_gre_field_mapping",
  "SeriesNumber": 10,
  "ShimSetting": [-8353, -1085, -3762, 687, -547, -252, -335, -299],
  "SliceThickness": 3,
  "SliceTiming": [0.000735, -0.001, -0.001, -0.001, -0.001, -0.001, -0.001, -0.001, -0.001, -0.001, -0.001, -0.001, -0.001, -0.001, -0.001, -0.001, -0.001, -0.001, -0.001, -0.001, -0.001, -0.001, -0.001, -0.001, -0.001, -0.001, -0.001, -0.001, -0.001, -0.001, -0.001, -0.001, -0.001, -0.001, -0.001, -0.001, -0.001, -0.001, -0.001, -0.001, -0.001, -0.001, -0.001, -0.001],
  "SoftwareVersions": "syngo_MR_E11",
  "SpacingBetweenSlices": 3,
  "StationName": "MRC51066",
  "TxRefAmp": 288.025,
  "dcmmeta_affine": [
    [-2.968735933303833, -1.888125072957436e-11, -0.009219646453857422, 95.1977767944336],
    [0.00026961302501149476, 2.9674534797668457, -0.0886526107788086, -79.38188934326172],
    [-0.009119627997279167, 0.08772991597652435, 2.9986724853515625, -40.8735466003418],
    [0.0, 0.0, 0.0, 1.0]
],
  "dcmmeta_reorient_transform": [
    [0.0, -1.0, 0.0, 63.0],
    [1.0, 0.0, 0.0, 0.0],
    [0.0, 0.0, -1.0, 43.0],
    [0.0, 0.0, 0.0, 1.0]
],
  "dcmmeta_shape": [64, 64, 44],
  "dcmmeta_slice_dim": 2,
  "dcmmeta_version": 0.6,
  "global": {
    "const": {
      "AcquisitionMatrix": [0, 64, 64, 0],
      "AcquisitionNumber": 1,
      "Allergies": "None",
      "AngioFlag": "N",
      "BitsAllocated": 16,
      "BitsStored": 12,
      "BodyPartExamined": "BRAIN",
      "Columns": 64,
      "EchoNumbers": 2,
      "EchoTime": 7.65,
      "EchoTrainLength": 0,
      "FlipAngle": 60.0,
      "HighBit": 11,
      "ImageOrientationPatient": [0.99999527765793, -9.08170212e-05, -0.0030718746893, -6.36e-12, 0.99956327002222, -0.0295511289546],
      "ImageType": [
        "ORIGINAL",
        "PRIMARY",
        "P",
        "ND"
],
      "ImagedNucleus": "1H",
      "ImagingFrequency": 123.239409,
      "InPlanePhaseEncodingDirection": "ROW",
      "MRAcquisitionType": "2D",
      "MagneticFieldStrength": 3.0,
      "Manufacturer": "SIEMENS",
      "ManufacturerModelName": "Biograph_mMR",
      "MedicalAlerts": "None",
      "Modality": "MR",
      "NumberOfAverages": 1.0,
      "NumberOfPhaseEncodingSteps": 64,
      "PercentPhaseFieldOfView": 100.0,
      "PercentSampling": 100.0,
      "PerformedProcedureStepStartTime": "095057.290000",
      "PhotometricInterpretation": "MONOCHROME2",
      "PixelBandwidth": 260.0,
      "PixelRepresentation": 0,
      "PixelSpacing": [2.96875, 2.96875],
      "PregnancyStatus": 4,
      "ProtocolName": "Head_gre_field_mapping",
      "RepetitionTime": 488.0,
      "RequestAttributesSequence": [
        {
          "RequestedProcedureID": "MMH001",
          "ScheduledProcedureStepDescription": "MR-PET Scan",
          "ScheduledProcedureStepID": "001"}
],
      "RescaleIntercept": -4096.0,
      "RescaleSlope": 2.0,
      "RescaleType": "US",
      "Rows": 64,
      "SAR": 0.11662249182192,
      "SamplesPerPixel": 1,
      "ScanningSequence": "GR",
      "SequenceName": "*fm2d2r",
      "SequenceVariant": "SP",
      "SeriesDescription": "Head_gre_field_mapping",
      "SeriesNumber": 10,
      "SeriesTime": "101321.196000",
      "SliceThickness": 3.0,
      "SoftwareVersions": "syngo MR E11",
      "SpacingBetweenSlices": 3.0,
      "SpecificCharacterSet": "ISO_IR 100",
      "StudyID": "MMH001",
      "StudyTime": "095057.117000",
      "TransmitCoilName": "Body",
      "VariableFlipAngleFlag": "N",
      "WindowCenterWidthExplanation": "Algo1",
      "dBdt": 0.0},
    "slices": {
      "AcquisitionTime": ["101218.815000", "101218.572500", "101218.827500", "101218.582500", "101218.837500", "101218.595000", "101218.850000", "101218.605000", "101218.860000", "101218.617500", "101218.872500", "101218.627500", "101218.882500", "101218.637500", "101218.892500", "101218.650000", "101218.905000", "101218.660000", "101218.915000", "101218.672500", "101218.927500", "101218.682500", "101218.937500", "101218.695000", "101218.950000", "101218.705000", "101218.960000", "101218.715000", "101218.970000", "101218.727500", "101218.982500", "101218.737500", "101218.992500", "101218.750000", "101219.005000", "101218.760000", "101219.015000", "101218.772500", "101219.027500", "101218.782500", "101219.037500", "101218.795000", "101219.050000", "101218.805000"],
      "ContentTime": ["101321.239000", "101321.198000", "101321.241000", "101321.200000", "101321.242000", "101321.207000", "101321.244000", "101321.209000", "101321.245000", "101321.210000", "101321.247000", "101321.212000", "101321.249000", "101321.213000", "101321.250000", "101321.215000", "101321.252000", "101321.217000", "101321.253000", "101321.218000", "101321.255000", "101321.220000", "101321.256000", "101321.222000", "101321.258000", "101321.223000", "101321.260000", "101321.225000", "101321.261000", "101321.226000", "101321.263000", "101321.228000", "101321.264000", "101321.229000", "101321.266000", "101321.231000", "101321.268000", "101321.233000", "101321.269000", "101321.234000", "101321.271000", "101321.236000", "101321.273000", "101321.237000"],
      "CsaImage.GSWDDataType": [
        "predicted",
        "predicted",
        "predicted",
        "predicted",
        "predicted",
        "predicted",
        "predicted",
        "predicted",
        "predicted",
        "predicted",
        "measured",
        "predicted",
        "measured",
        "predicted",
        "measured",
        "predicted",
        "measured",
        "predicted",
        "measured",
        "predicted",
        "measured",
        "predicted",
        "measured",
        "predicted",
        "measured",
        "predicted",
        "measured",
        "predicted",
        "measured",
        "predicted",
        "measured",
        "predicted",
        "measured",
        "predicted",
        "measured",
        "predicted",
        "measured",
        "predicted",
        "measured",
        "predicted",
        "measured",
        "predicted",
        "measured",
        "predicted"
],
      "CsaImage.ICE_Dims": [
        "X_2_1_1_1_1_1_23_1_1_1_1_38",
        "X_2_1_1_1_1_1_1_1_1_2_1_38",
        "X_2_1_1_1_1_1_24_1_1_3_1_38",
        "X_2_1_1_1_1_1_2_1_1_4_1_38",
        "X_2_1_1_1_1_1_25_1_1_5_1_38",
        "X_2_1_1_1_1_1_3_1_1_6_1_38",
        "X_2_1_1_1_1_1_26_1_1_7_1_38",
        "X_2_1_1_1_1_1_4_1_1_8_1_38",
        "X_2_1_1_1_1_1_27_1_1_9_1_38",
        "X_2_1_1_1_1_1_5_1_1_10_1_38",
        "X_2_1_1_1_1_1_28_1_1_11_1_38",
        "X_2_1_1_1_1_1_6_1_1_12_1_38",
        "X_2_1_1_1_1_1_29_1_1_13_1_38",
        "X_2_1_1_1_1_1_7_1_1_14_1_38",
        "X_2_1_1_1_1_1_30_1_1_15_1_38",
        "X_2_1_1_1_1_1_8_1_1_16_1_38",
        "X_2_1_1_1_1_1_31_1_1_17_1_38",
        "X_2_1_1_1_1_1_9_1_1_18_1_38",
        "X_2_1_1_1_1_1_32_1_1_19_1_38",
        "X_2_1_1_1_1_1_10_1_1_20_1_38",
        "X_2_1_1_1_1_1_33_1_1_21_1_38",
        "X_2_1_1_1_1_1_11_1_1_22_1_38",
        "X_2_1_1_1_1_1_34_1_1_23_1_38",
        "X_2_1_1_1_1_1_12_1_1_24_1_38",
        "X_2_1_1_1_1_1_35_1_1_25_1_38",
        "X_2_1_1_1_1_1_13_1_1_26_1_38",
        "X_2_1_1_1_1_1_36_1_1_27_1_38",
        "X_2_1_1_1_1_1_14_1_1_28_1_38",
        "X_2_1_1_1_1_1_37_1_1_29_1_38",
        "X_2_1_1_1_1_1_15_1_1_30_1_38",
        "X_2_1_1_1_1_1_38_1_1_31_1_38",
        "X_2_1_1_1_1_1_16_1_1_32_1_38",
        "X_2_1_1_1_1_1_39_1_1_33_1_38",
        "X_2_1_1_1_1_1_17_1_1_34_1_38",
        "X_2_1_1_1_1_1_40_1_1_35_1_38",
        "X_2_1_1_1_1_1_18_1_1_36_1_38",
        "X_2_1_1_1_1_1_41_1_1_37_1_38",
        "X_2_1_1_1_1_1_19_1_1_38_1_38",
        "X_2_1_1_1_1_1_42_1_1_39_1_38",
        "X_2_1_1_1_1_1_20_1_1_40_1_38",
        "X_2_1_1_1_1_1_43_1_1_41_1_38",
        "X_2_1_1_1_1_1_21_1_1_42_1_38",
        "X_2_1_1_1_1_1_44_1_1_43_1_38",
        "X_2_1_1_1_1_1_22_1_1_44_1_38"
],
      "CsaImage.ProtocolSliceNumber": [0, 1, 2, 3, 4, 5, 6, 7, 8, 9, 10, 11, 12, 13, 14, 15, 16, 17, 18, 19, 20, 21, 22, 23, 24, 25, 26, 27, 28, 29, 30, 31, 32, 33, 34, 35, 36, 37, 38, 39, 40, 41, 42, 43],
      "CsaImage.RFSWDDataType": [
        "predicted",
        "predicted",
        "predicted",
        "predicted",
        "predicted",
        "predicted",
        "predicted",
        "predicted",
        "measured",
        "predicted",
        "measured",
        "predicted",
        "measured",
        "predicted",
        "measured",
        "predicted",
        "measured",
        "predicted",
        "measured",
        "predicted",
        "measured",
        "predicted",
        "measured",
        "predicted",
        "measured",
        "predicted",
        "measured",
        "predicted",
        "measured",
        "predicted",
        "measured",
        "predicted",
        "measured",
        "predicted",
        "measured",
        "predicted",
        "measured",
        "predicted",
        "measured",
        "predicted",
        "measured",
        "predicted",
        "measured",
        "predicted"
],
      "CsaImage.SliceMeasurementDuration": [61490.0, 61487.5, 61487.5, 61487.5, 61487.5, 61487.5, 61487.5, 61487.5, 61487.5, 61487.5, 61487.5, 61487.5, 61487.5, 61490.0, 61490.0, 61487.5, 61487.5, 61487.5, 61490.0, 61487.5, 61487.5, 61487.5, 61487.5, 61487.5, 61487.5, 61487.5, 61487.5, 61490.0, 61490.0, 61487.5, 61487.5, 61490.0, 61490.0, 61487.5, 61487.5, 61487.5, 61487.5, 61487.5, 61487.5, 61487.5, 61487.5, 61487.5, 61487.5, 61487.5],
      "CsaImage.SlicePosition_PCS": [
        [-95.19777385, -107.5676971, -35.34669554],
        [-95.1885542, -107.47904353, -32.34801924],
        [-95.17933456, -107.39039092, -29.34934294],
        [-95.17011491, -107.30173831, -26.35066855],
        [-95.16089525, -107.21308475, -23.35199225],
        [-95.1516756, -107.12443214, -20.35331595],
        [-95.14245596, -107.03577953, -17.35464156],
        [-95.13323631, -106.94712596, -14.35596526],
        [-95.12401666, -106.85847335, -11.35728991],
        [-95.114797, -106.76981979, -8.35861361],
        [-95.10557736, -106.68116718, -5.35993827],
        [-95.0963577, -106.59251457, -2.36126292],
        [-95.08713806, -106.503861, 0.6374129],
        [-95.0779184, -106.41520839, 3.63608861],
        [-95.06869876, -106.32655578, 6.63476431],
        [-95.0594791, -106.23790222, 9.6334399],
        [-95.05025945, -106.1492496, 12.63211572],
        [-95.0410398, -106.06059699, 15.63079107],
        [-95.03182015, -105.97194343, 18.62946641],
        [-95.0226005, -105.88329082, 21.62814271],
        [-95.01338085, -105.79463725, 24.62681901],
        [-95.0041612, -105.70598464, 27.62549341],
        [-94.99494155, -105.61733203, 30.62416971],
        [-94.9857219, -105.52867847, 33.62284601],
        [-94.97650225, -105.44002586, 36.6215204],
        [-94.9672826, -105.35137325, 39.6201967],
        [-94.95806295, -105.26271968, 42.618873],
        [-94.9488433, -105.17406707, 45.6175493],
        [-94.93962365, -105.08541351, 48.61622178],
        [-94.930404, -104.9967609, 51.61489808],
        [-94.92118435, -104.90810829, 54.61357438],
        [-94.9119647, -104.81945472, 57.61225068],
        [-94.90274505, -104.73080211, 60.61092698],
        [-94.8935254, -104.6421495, 63.60960328],
        [-94.88430575, -104.55349593, 66.60827577],
        [-94.8750861, -104.46484332, 69.60695207],
        [-94.86586644, -104.37618976, 72.60563218],
        [-94.8566468, -104.28753715, 75.60430467],
        [-94.84742715, -104.19888454, 78.60297716],
        [-94.8382075, -104.11023097, 81.60165727],
        [-94.82898784, -104.02157836, 84.60032976],
        [-94.8197682, -103.93292575, 87.59900987],
        [-94.81054855, -103.84427219, 90.59768236],
        [-94.8013289, -103.75561958, 93.59635484]
],
      "CsaImage.TimeAfterStart": [0.735, 0.4925, 0.7475, 0.5025, 0.7575, 0.5125, 0.7675, 0.525, 0.78, 0.535, 0.79, 0.5475, 0.8025, 0.5575, 0.8125, 0.57, 0.825, 0.58, 0.835, 0.5925, 0.8475, 0.6025, 0.8575, 0.6125, 0.8675, 0.625, 0.88, 0.635, 0.89, 0.6475, 0.9025, 0.6575, 0.9125, 0.67, 0.925, 0.68, 0.935, 0.69, 0.945, 0.7025, 0.9575, 0.7125, 0.9675, 0.725],
      "ImagePositionPatient": [
        [-95.197773850163, -107.56769709912, -35.34669554372],
        [-95.188554203709, -107.47904353467, -32.348019243672],
        [-95.179334557255, -107.39039092389, -29.349342943623],
        [-95.170114910801, -107.30173831311, -26.350668550923],
        [-95.160895249446, -107.21308474866, -23.351992250874],
        [-95.151675602992, -107.12443213788, -20.353315950825],
        [-95.142455956539, -107.0357795271, -17.354641558125],
        [-95.133236310085, -106.94712596265, -14.355965258076],
        [-95.12401665618, -106.85847335187, -11.357289911701],
        [-95.114797002276, -106.76981978741, -8.3586136116526],
        [-95.105577355822, -106.68116717663, -5.3599382652781],
        [-95.096357701918, -106.59251456586, -2.3612629189036],
        [-95.087138055464, -106.5038610014, 0.6374129043081],
        [-95.077918401559, -106.41520839062, 3.6360886083105],
        [-95.068698755105, -106.32655577984, 6.6347643123129],
        [-95.059479104926, -106.23790221539, 9.633439897106],
        [-95.050259454747, -106.14924960461, 12.632115720318],
        [-95.041039804568, -106.06059699383, 15.630791066692],
        [-95.031820154389, -105.97194342938, 18.629466413067],
        [-95.022600502347, -105.8832908186, 21.628142713115],
        [-95.013380852168, -105.79463725415, 24.626819013164],
        [-95.004161201989, -105.70598464337, 27.625493405865],
        [-94.99494155181, -105.61733203259, 30.624169705913],
        [-94.98572190163, -105.52867846814, 33.622846005962],
        [-94.976502251451, -105.44002585736, 36.621520398662],
        [-94.967282599409, -105.35137324658, 39.620196698711],
        [-94.95806294923, -105.26271968213, 42.61887299876],
        [-94.948843299051, -105.17406707135, 45.617549298809],
        [-94.939623648872, -105.0854135069, 48.61622178416],
        [-94.930403998693, -104.99676089612, 51.614898084209],
        [-94.921184352239, -104.90810828534, 54.613574384258],
        [-94.911964698335, -104.81945472088, 57.612250684307],
        [-94.902745051881, -104.73080211011, 60.610926984356],
        [-94.893525397976, -104.64214949933, 63.609603284405],
        [-94.884305751522, -104.55349593487, 66.608275769756],
        [-94.875086097618, -104.4648433241, 69.606952069805],
        [-94.865866443714, -104.37618975964, 72.605632184551],
        [-94.85664679726, -104.28753714886, 75.604304669903],
        [-94.847427150806, -104.19888453808, 78.602977155254],
        [-94.838207504352, -104.11023097363, 81.60165727],
        [-94.828987842997, -104.02157836285, 84.600329755352],
        [-94.819768196543, -103.93292575207, 87.599009870098],
        [-94.810548550089, -103.84427218762, 90.597682355449],
        [-94.801328903635, -103.75561957684, 93.596354840801]
],
      "InstanceCreationTime": ["101321.239000", "101321.198000", "101321.241000", "101321.200000", "101321.242000", "101321.207000", "101321.244000", "101321.209000", "101321.245000", "101321.210000", "101321.247000", "101321.212000", "101321.249000", "101321.213000", "101321.250000", "101321.215000", "101321.252000", "101321.217000", "101321.253000", "101321.218000", "101321.255000", "101321.220000", "101321.256000", "101321.222000", "101321.258000", "101321.223000", "101321.260000", "101321.225000", "101321.261000", "101321.226000", "101321.263000", "101321.228000", "101321.264000", "101321.229000", "101321.266000", "101321.231000", "101321.268000", "101321.233000", "101321.269000", "101321.234000", "101321.271000", "101321.236000", "101321.273000", "101321.237000"],
      "InstanceNumber": [1, 2, 3, 4, 5, 6, 7, 8, 9, 10, 11, 12, 13, 14, 15, 16, 17, 18, 19, 20, 21, 22, 23, 24, 25, 26, 27, 28, 29, 30, 31, 32, 33, 34, 35, 36, 37, 38, 39, 40, 41, 42, 43, 44],
      "LargestImagePixelValue": [4093, 4089, 4091, 4080, 4095, 4087, 4092, 4059, 4090, 4082, 4092, 4086, 4092, 4077, 4088, 4088, 4086, 4080, 4070, 4079, 4060, 4091, 4035, 4088, 4094, 4090, 4060, 4082, 4086, 4082, 4087, 4088, 4092, 4090, 4091, 4095, 4086, 4095, 4093, 4093, 4093, 4095, 4090, 4094],
      "SliceLocation": [-38.80238701623, -35.802386348089, -32.80238570813, -29.802386974678, -26.802386306492, -23.802385666533, -20.802386933081, -17.80238626494, -14.802386578212, -11.802385910048, -8.8023862233424, -5.8023865366141, -2.8023863450999, 0.19761369909841, 3.1976137432739, 6.1976136964861, 9.1976138598297, 12.197613546547, 15.197613261445, 18.197613901421, 21.197614569574, 24.197613303037, 27.197613943007, 30.19761461116, 33.197613344623, 36.197613984599, 39.197614652751, 42.197615292722, 45.197612147861, 48.197612787831, 51.19761342779, 54.197614095953, 57.197614735912, 60.197615375894, 63.197612231021, 66.197612871003, 69.19761735218, 72.197614179125, 75.197611006071, 78.197615487225, 81.197612314216, 84.197616767188, 87.197613622316, 90.197610449261],
      "SmallestImagePixelValue": [0, 5, 4, 1, 5, 4, 1, 5, 0, 2, 0, 0, 44, 91, 4, 5, 42, 31, 7, 0, 22, 49, 42, 17, 3, 23, 32, 3, 27, 10, 3, 0, 18, 5, 4, 4, 3, 5, 0, 0, 0, 2, 0, 0],
      "WindowCenter": [-192.0, -162.0, -226.0, -242.0, -222.0, -242.0, -220.0, -212.0, -174.0, -226.0, -244.0, -414.0, -388.0, -258.0, -194.0, -154.0, -88.0, -116.0, -220.0, -72.0, -180.0, -74.0, -36.0, -160.0, -166.0, -158.0, -174.0, -188.0, -168.0, -164.0, -154.0, -194.0, -206.0, -216.0, -276.0, -270.0, -294.0, -342.0, -378.0, -260.0, -276.0, -296.0, -274.0, -332.0],
      "WindowWidth": [6130.0, 6138.0, 5990.0, 5988.0, 5920.0, 5786.0, 5744.0, 5776.0, 5738.0, 5644.0, 5558.0, 4724.0, 4688.0, 5322.0, 5276.0, 5218.0, 5288.0, 5094.0, 4558.0, 5100.0, 4526.0, 4874.0, 5016.0, 4520.0, 4536.0, 4528.0, 4540.0, 4552.0, 4550.0, 4550.0, 4552.0, 4586.0, 4606.0, 4628.0, 4662.0, 4676.0, 4734.0, 4796.0, 4848.0, 5702.0, 6058.0, 6242.0, 6384.0, 6602.0]
    }
  }
}