{
  "AcquisitionMatrixPE": 64,
  "AcquisitionNumber": 1,
  "AcquisitionTime": "12:44:47.322500",
  "BaseResolution": 64,
  "BodyPartExamined": "BRAIN",
  "CoilString": "HEA;HEP;NEP",
  "ConsistencyInfo": "N4_VE11P_LATEST_20161021",
  "ConversionSoftware": "dcm2niix",
  "ConversionSoftwareVersion": "v1.0.20190410  GCC6.3.0",
  "DeviceSerialNumber": "51066",
  "DwellTime": 3e-05,
  "EchoNumber": 2,
  "EchoTime": 0.00765,
  "EchoTime1": 0.00519,
  "EchoTime2": 0.00765,
  "FlipAngle": 60,
  "ImageOrientationPatientDICOM": [0.999931, -0.000963155, -0.0117309, -9.5e-12, 0.996646, -0.081829],
  "ImageType": [
    "ORIGINAL",
    "PRIMARY",
    "P",
    "ND"
],
  "ImagingFrequency": 123.24,
  "InPlanePhaseEncodingDirectionDICOM": "ROW",
  "InstitutionAddress": "Blackburn_Road_770_Clayton_Victoria_AU_3168",
  "InstitutionName": "MONASH_BIOMEDICAL_IMAGING",
  "InstitutionalDepartmentName": "Department",
  "MRAcquisitionType": "2D",
  "MagneticFieldStrength": 3,
  "Manufacturer": "Siemens",
  "ManufacturersModelName": "Biograph_mMR",
  "Modality": "MR",
  "PartialFourier": 1,
  "PatientPosition": "HFS",
  "PercentPhaseFOV": 100,
  "PhaseEncodingDirection": "i",
  "PhaseEncodingSteps": 64,
  "PhaseResolution": 1,
  "PixelBandwidth": 260,
  "ProcedureStepDescription": "MR-PET_Scan",
  "ProtocolName": "Head_gre_field_mapping",
  "PulseSequenceDetails": "%SiemensSeq%_gre_field_mapping",
  "ReceiveCoilName": "HeadNeck_MRPET",
  "ReconMatrixPE": 64,
  "RepetitionTime": 0.488,
  "SAR": 0.141907,
  "ScanningSequence": "GR",
  "SequenceName": "_fm2d2r",
  "SequenceVariant": "SP",
  "SeriesDescription": "Head_gre_field_mapping",
  "SeriesNumber": 8,
  "ShimSetting": [-8379, -818, -3763, 589, -360, 466, -725, -185],
  "SliceThickness": 3,
  "SliceTiming": [0.0007325, -0.001, -0.001, -0.001, -0.001, -0.001, -0.001, -0.001, -0.001, -0.001, -0.001, -0.001, -0.001, -0.001, -0.001, -0.001, -0.001, -0.001, -0.001, -0.001, -0.001, -0.001, -0.001, -0.001, -0.001, -0.001, -0.001, -0.001, -0.001, -0.001, -0.001, -0.001, -0.001, -0.001, -0.001, -0.001, -0.001, -0.001, -0.001, -0.001, -0.001, -0.001, -0.001, -0.001],
  "SoftwareVersions": "syngo_MR_E11",
  "SpacingBetweenSlices": 3,
  "StationName": "MRC51066",
  "TxRefAmp": 289.929,
  "dcmmeta_affine": [
    [-2.9685442447662354, -2.820312559881355e-11, -0.035310983657836914, 95.74751281738281],
    [0.002859365427866578, 2.958793878555298, -0.2454700469970703, -69.42798614501953],
    [-0.03482598811388016, 0.2429298609495163, 2.9897308349609375, -45.69084548950195],
    [0.0, 0.0, 0.0, 1.0]
],
  "dcmmeta_reorient_transform": [
    [0.0, -1.0, 0.0, 63.0],
    [1.0, 0.0, 0.0, 0.0],
    [0.0, 0.0, -1.0, 43.0],
    [0.0, 0.0, 0.0, 1.0]
],
  "dcmmeta_shape": [64, 64, 44],
  "dcmmeta_slice_dim": 2,
  "dcmmeta_version": 0.6,
  "global": {
    "const": {
      "AcquisitionMatrix": [0, 64, 64, 0],
      "AcquisitionNumber": 1,
      "Allergies": "None",
      "AngioFlag": "N",
      "BitsAllocated": 16,
      "BitsStored": 12,
      "BodyPartExamined": "BRAIN",
      "Columns": 64,
      "EchoNumbers": 2,
      "EchoTime": 7.65,
      "EchoTrainLength": 0,
      "FlipAngle": 60.0,
      "HighBit": 11,
      "ImageOrientationPatient": [0.99993072723443, -0.0009631546343, -0.0117308595409, -9.5e-12, 0.99664638339973, -0.0818290074255],
      "ImageType": [
        "ORIGINAL",
        "PRIMARY",
        "P",
        "ND"
],
      "ImagedNucleus": "1H",
      "ImagingFrequency": 123.239628,
      "InPlanePhaseEncodingDirection": "ROW",
      "MRAcquisitionType": "2D",
      "MagneticFieldStrength": 3.0,
      "Manufacturer": "SIEMENS",
      "ManufacturerModelName": "Biograph_mMR",
      "MedicalAlerts": "None",
      "Modality": "MR",
      "NumberOfAverages": 1.0,
      "NumberOfPhaseEncodingSteps": 64,
      "PercentPhaseFieldOfView": 100.0,
      "PercentSampling": 100.0,
      "PerformedProcedureStepStartTime": "121216.309000",
      "PhotometricInterpretation": "MONOCHROME2",
      "PixelBandwidth": 260.0,
      "PixelRepresentation": 0,
      "PixelSpacing": [2.96875, 2.96875],
      "PregnancyStatus": 4,
      "ProtocolName": "Head_gre_field_mapping",
      "RepetitionTime": 488.0,
      "RequestAttributesSequence": [
        {
          "RequestedProcedureID": "MMH001B",
          "ScheduledProcedureStepDescription": "MR-PET Scan",
          "ScheduledProcedureStepID": "001"}
],
      "RescaleIntercept": -4096.0,
      "RescaleSlope": 2.0,
      "RescaleType": "US",
      "Rows": 64,
      "SAR": 0.14190714329827,
      "SamplesPerPixel": 1,
      "ScanningSequence": "GR",
      "SequenceName": "*fm2d2r",
      "SequenceVariant": "SP",
      "SeriesDescription": "Head_gre_field_mapping",
      "SeriesNumber": 8,
      "SeriesTime": "124549.617000",
      "SliceThickness": 3.0,
      "SoftwareVersions": "syngo MR E11",
      "SpacingBetweenSlices": 3.0,
      "SpecificCharacterSet": "ISO_IR 100",
      "StudyID": "MMH001B",
      "StudyTime": "121216.071000",
      "TransmitCoilName": "Body",
      "VariableFlipAngleFlag": "N",
      "WindowCenterWidthExplanation": "Algo1",
      "dBdt": 0.0},
    "slices": {
      "AcquisitionTime": ["124447.322500", "124447.077500", "124447.332500", "124447.087500", "124447.342500", "124447.100000", "124447.355000", "124447.110000", "124447.365000", "124447.122500", "124447.377500", "124447.132500", "124447.387500", "124447.145000", "124447.400000", "124447.155000", "124447.410000", "124447.165000", "124447.420000", "124447.177500", "124447.432500", "124447.187500", "124447.442500", "124447.200000", "124447.455000", "124447.210000", "124447.465000", "124447.222500", "124447.477500", "124447.232500", "124447.487500", "124447.245000", "124447.500000", "124447.255000", "124447.510000", "124447.265000", "124447.520000", "124447.277500", "124447.532500", "124447.287500", "124447.542500", "124447.300000", "124447.555000", "124447.310000"],
      "ContentTime": ["124549.664000", "124549.620000", "124549.677000", "124549.622000", "124549.678000", "124549.624000", "124549.680000", "124549.625000", "124549.682000", "124549.632000", "124549.683000", "124549.634000", "124549.686000", "124549.635000", "124549.688000", "124549.637000", "124549.690000", "124549.639000", "124549.691000", "124549.640000", "124549.694000", "124549.642000", "124549.696000", "124549.643000", "124549.698000", "124549.645000", "124549.700000", "124549.647000", "124549.701000", "124549.650000", "124549.703000", "124549.652000", "124549.704000", "124549.654000", "124549.707000", "124549.655000", "124549.709000", "124549.657000", "124549.710000", "124549.659000", "124549.712000", "124549.661000", "124549.714000", "124549.663000"],
      "CsaImage.ICE_Dims": [
        "X_2_1_1_1_1_1_23_1_1_1_1_25",
        "X_2_1_1_1_1_1_1_1_1_2_1_25",
        "X_2_1_1_1_1_1_24_1_1_3_1_25",
        "X_2_1_1_1_1_1_2_1_1_4_1_25",
        "X_2_1_1_1_1_1_25_1_1_5_1_25",
        "X_2_1_1_1_1_1_3_1_1_6_1_25",
        "X_2_1_1_1_1_1_26_1_1_7_1_25",
        "X_2_1_1_1_1_1_4_1_1_8_1_25",
        "X_2_1_1_1_1_1_27_1_1_9_1_25",
        "X_2_1_1_1_1_1_5_1_1_10_1_25",
        "X_2_1_1_1_1_1_28_1_1_11_1_25",
        "X_2_1_1_1_1_1_6_1_1_12_1_25",
        "X_2_1_1_1_1_1_29_1_1_13_1_25",
        "X_2_1_1_1_1_1_7_1_1_14_1_25",
        "X_2_1_1_1_1_1_30_1_1_15_1_25",
        "X_2_1_1_1_1_1_8_1_1_16_1_25",
        "X_2_1_1_1_1_1_31_1_1_17_1_25",
        "X_2_1_1_1_1_1_9_1_1_18_1_25",
        "X_2_1_1_1_1_1_32_1_1_19_1_25",
        "X_2_1_1_1_1_1_10_1_1_20_1_25",
        "X_2_1_1_1_1_1_33_1_1_21_1_25",
        "X_2_1_1_1_1_1_11_1_1_22_1_25",
        "X_2_1_1_1_1_1_34_1_1_23_1_25",
        "X_2_1_1_1_1_1_12_1_1_24_1_25",
        "X_2_1_1_1_1_1_35_1_1_25_1_25",
        "X_2_1_1_1_1_1_13_1_1_26_1_25",
        "X_2_1_1_1_1_1_36_1_1_27_1_25",
        "X_2_1_1_1_1_1_14_1_1_28_1_25",
        "X_2_1_1_1_1_1_37_1_1_29_1_25",
        "X_2_1_1_1_1_1_15_1_1_30_1_25",
        "X_2_1_1_1_1_1_38_1_1_31_1_25",
        "X_2_1_1_1_1_1_16_1_1_32_1_25",
        "X_2_1_1_1_1_1_39_1_1_33_1_25",
        "X_2_1_1_1_1_1_17_1_1_34_1_25",
        "X_2_1_1_1_1_1_40_1_1_35_1_25",
        "X_2_1_1_1_1_1_18_1_1_36_1_25",
        "X_2_1_1_1_1_1_41_1_1_37_1_25",
        "X_2_1_1_1_1_1_19_1_1_38_1_25",
        "X_2_1_1_1_1_1_42_1_1_39_1_25",
        "X_2_1_1_1_1_1_20_1_1_40_1_25",
        "X_2_1_1_1_1_1_43_1_1_41_1_25",
        "X_2_1_1_1_1_1_21_1_1_42_1_25",
        "X_2_1_1_1_1_1_44_1_1_43_1_25",
        "X_2_1_1_1_1_1_22_1_1_44_1_25"
],
      "CsaImage.ProtocolSliceNumber": [0, 1, 2, 3, 4, 5, 6, 7, 8, 9, 10, 11, 12, 13, 14, 15, 16, 17, 18, 19, 20, 21, 22, 23, 24, 25, 26, 27, 28, 29, 30, 31, 32, 33, 34, 35, 36, 37, 38, 39, 40, 41, 42, 43],
      "CsaImage.SliceMeasurementDuration": [61487.5, 61487.5, 61487.5, 61490.0, 61490.0, 61487.5, 61487.5, 61487.5, 61487.5, 61487.5, 61487.5, 61487.5, 61487.5, 61487.5, 61487.5, 61487.5, 61487.5, 61490.0, 61490.0, 61487.5, 61487.5, 61490.0, 61490.0, 61487.5, 61487.5, 61487.5, 61487.5, 61487.5, 61487.5, 61487.5, 61487.5, 61487.5, 61487.5, 61487.5, 61487.5, 61490.0, 61490.0, 61487.5, 61487.5, 61487.5, 61487.5, 61487.5, 61487.5, 61487.5],
      "CsaImage.SlicePosition_PCS": [
        [-95.74751273, -116.97602848, -30.38631825],
        [-95.71220169, -116.73055844, -27.39658742],
        [-95.67689071, -116.48508839, -24.40685277],
        [-95.64157972, -116.23961834, -21.41712193],
        [-95.60626874, -115.99414829, -18.42738919],
        [-95.5709577, -115.74867825, -15.43765836],
        [-95.53564671, -115.5032082, -12.44792561],
        [-95.50033573, -115.25773815, -9.45819478],
        [-95.46502472, -115.01226811, -6.46846204],
        [-95.42971373, -114.76679806, -3.47873025],
        [-95.39440272, -114.52132801, -0.48899751],
        [-95.35909173, -114.27585797, 2.50073428],
        [-95.32378075, -114.03038792, 5.49046607],
        [-95.28846974, -113.78491787, 8.48019813],
        [-95.25315875, -113.53944782, 11.46993013],
        [-95.21784774, -113.29397778, 14.45966239],
        [-95.18253674, -113.04850773, 17.44939418],
        [-95.14722574, -112.80303768, 20.43912597],
        [-95.11191475, -112.55756764, 23.42885871],
        [-95.07660375, -112.31209759, 26.4185905],
        [-95.04129275, -112.06662945, 29.40832324],
        [-95.00598176, -111.8211594, 32.39805408],
        [-94.97067076, -111.57568936, 35.38778682],
        [-94.93535976, -111.33021931, 38.37751765],
        [-94.90004877, -111.08474926, 41.3672523],
        [-94.86473777, -110.83927922, 44.35698314],
        [-94.82942677, -110.59380917, 47.34671397],
        [-94.79411577, -110.34833817, 50.33644481],
        [-94.75880477, -110.10286812, 53.32617946],
        [-94.72349379, -109.85739807, 56.31591029],
        [-94.68818278, -109.61192803, 59.30564113],
        [-94.65287179, -109.36645798, 62.29537578],
        [-94.61756078, -109.12098793, 65.28510661],
        [-94.5822498, -108.87551789, 68.27483745],
        [-94.54693878, -108.63004784, 71.2645721],
        [-94.5116278, -108.38457779, 74.25429912],
        [-94.47631679, -108.13910774, 77.24403758],
        [-94.4410058, -107.8936377, 80.23376842],
        [-94.40569482, -107.64816765, 83.22349925],
        [-94.37038383, -107.4026976, 86.21323009],
        [-94.33507279, -107.15722756, 89.20296092],
        [-94.29976181, -106.91175751, 92.19269176],
        [-94.26445082, -106.66628746, 95.18243022],
        [-94.22913984, -106.42081742, 98.17216106]
],
      "CsaImage.TimeAfterStart": [0.7325, 0.49, 0.745, 0.5, 0.755, 0.5125, 0.7675, 0.5225, 0.7775, 0.535, 0.79, 0.545, 0.8, 0.555, 0.81, 0.5675, 0.8225, 0.5775, 0.8325, 0.59, 0.845, 0.6, 0.855, 0.6125, 0.8675, 0.6225, 0.8775, 0.6325, 0.8875, 0.645, 0.9, 0.655, 0.91, 0.6675, 0.9225, 0.6775, 0.9325, 0.69, 0.945, 0.7, 0.955, 0.71, 0.9675, 0.7225],
      "ImagePositionPatient": [
        [-95.747512733372, -116.97602848259, -30.386318253433],
        [-95.712201690109, -116.73055843559, -27.396587418472],
        [-95.676890706451, -116.4850883886, -24.406852768814],
        [-95.641579722793, -116.2396183416, -21.417121933853],
        [-95.606268739136, -115.9941482946, -18.427389191543],
        [-95.570957695873, -115.7486782476, -15.437658356582],
        [-95.535646712215, -115.50320820061, -12.447925614273],
        [-95.500335728557, -115.25773815361, -9.4581947793119],
        [-95.465024715097, -115.01226810661, -6.4684620370024],
        [-95.429713731439, -114.76679805962, -3.4787302483671],
        [-95.394402717979, -114.52132801262, -0.4889975060575],
        [-95.359091734321, -114.27585796562, 2.5007342825777],
        [-95.323780750664, -114.03038791862, 5.490466071213],
        [-95.288469737203, -113.78491787163, 8.4801981280691],
        [-95.253158753546, -113.53944782463, 11.469930125321],
        [-95.217847740085, -113.29397777763, 14.459662390793],
        [-95.182536741526, -113.04850773064, 17.449394179428],
        [-95.147225742967, -112.80303768364, 20.439125968064],
        [-95.111914751859, -112.55756763664, 23.428858710373],
        [-95.0766037533, -112.31209758964, 26.418590499008],
        [-95.041292754741, -112.06662945, 29.408323241318],
        [-95.005981758976, -111.821159403, 32.398054076279],
        [-94.970670761348, -111.575689356, 35.387786818588],
        [-94.935359762789, -111.33021930901, 38.377517653549],
        [-94.900048767956, -111.08474926201, 41.367252303208],
        [-94.864737769397, -110.83927921501, 44.356983138169],
        [-94.829426770838, -110.59380916801, 47.346713973129],
        [-94.794115772279, -110.34833816734, 50.33644480809],
        [-94.75880477372, -110.10286812035, 53.326179457749],
        [-94.723493790062, -109.85739807335, 56.31591029271],
        [-94.688182776602, -109.61192802635, 59.30564112767],
        [-94.652871792944, -109.36645797935, 62.295375777329],
        [-94.617560779484, -109.12098793236, 65.28510661229],
        [-94.582249795826, -108.87551788536, 68.274837447251],
        [-94.546938782366, -108.63004783836, 71.264572096909],
        [-94.511627798708, -108.38457779137, 74.254299117172],
        [-94.476316785248, -108.13910774437, 77.244037581528],
        [-94.44100580159, -107.89363769737, 80.233768416489],
        [-94.405694817932, -107.64816765037, 83.22349925145],
        [-94.370383834274, -107.40269760338, 86.213230086411],
        [-94.335072791012, -107.15722755638, 89.202960921372],
        [-94.299761807354, -106.91175750938, 92.192691756333],
        [-94.264450823696, -106.66628746239, 95.182430220688],
        [-94.229139840038, -106.42081741539, 98.172161055649]
],
      "InstanceCreationTime": ["124549.664000", "124549.620000", "124549.677000", "124549.622000", "124549.678000", "124549.624000", "124549.680000", "124549.625000", "124549.682000", "124549.632000", "124549.683000", "124549.634000", "124549.686000", "124549.635000", "124549.688000", "124549.637000", "124549.690000", "124549.639000", "124549.691000", "124549.640000", "124549.694000", "124549.642000", "124549.696000", "124549.643000", "124549.698000", "124549.645000", "124549.700000", "124549.647000", "124549.701000", "124549.650000", "124549.703000", "124549.652000", "124549.704000", "124549.654000", "124549.707000", "124549.655000", "124549.709000", "124549.657000", "124549.710000", "124549.659000", "124549.712000", "124549.661000", "124549.714000", "124549.663000"],
      "InstanceNumber": [1, 2, 3, 4, 5, 6, 7, 8, 9, 10, 11, 12, 13, 14, 15, 16, 17, 18, 19, 20, 21, 22, 23, 24, 25, 26, 27, 28, 29, 30, 31, 32, 33, 34, 35, 36, 37, 38, 39, 40, 41, 42, 43, 44],
      "LargestImagePixelValue": [4086, 4089, 4092, 4089, 4084, 4091, 4092, 4094, 4081, 4092, 4094, 4095, 4087, 4093, 4094, 4069, 4059, 4066, 4093, 4026, 4063, 4064, 4090, 4077, 4059, 4076, 4086, 4090, 4065, 4090, 4095, 4091, 4084, 4090, 4093, 4078, 4095, 4092, 4093, 4094, 4095, 4094, 4095, 4089],
      "SliceLocation": [-40.980665611459, -37.980666798248, -34.980664184098, -31.980665371589, -28.98066465826, -25.980665845049, -22.98066513172, -19.980666319211, -16.98066560553, -13.980665842611, -10.980665128931, -7.9806653660114, -4.9806656030921, -1.9806655725192, 1.0193343983024, 4.0193346367775, 7.0193343998722, 10.019334162967, 13.019334876384, 16.019334639479, 19.019335196918, 22.01933400957, 25.019334723064, 28.019333535748, 31.019336150029, 34.019334962714, 37.019333775398, 40.019332666116, 43.019335280441, 46.01933409295, 49.01933290581, 52.01933551996, 55.01933433282, 58.019333145329, 61.01933575983, 64.019330770698, 67.019337186839, 70.019335999348, 73.019334811857, 76.019333624367, 79.019332437577, 82.019331250086, 85.019337665877, 88.019336478386],
      "SmallestImagePixelValue": [2, 1, 0, 3, 0, 3, 0, 3, 23, 6, 10, 0, 1, 16, 3, 11, 13, 14, 18, 11, 0, 20, 3, 15, 7, 6, 1, 3, 1, 9, 36, 5, 6, 0, 0, 3, 0, 2, 0, 1, 0, 0, 2, 0],
      "WindowCenter": [-568.0, -388.0, -280.0, -236.0, -216.0, -118.0, -120.0, -82.0, -230.0, -248.0, -232.0, -176.0, -168.0, -108.0, -140.0, -118.0, -106.0, -82.0, -50.0, -162.0, -166.0, -198.0, -186.0, -194.0, -170.0, -152.0, -134.0, -138.0, -128.0, -166.0, -144.0, -172.0, -200.0, -220.0, -248.0, -278.0, -276.0, -256.0, -268.0, -320.0, -418.0, -492.0, -508.0, -324.0],
      "WindowWidth": [4844.0, 5394.0, 5676.0, 5764.0, 5744.0, 5912.0, 5822.0, 5870.0, 5426.0, 5412.0, 5258.0, 5550.0, 5250.0, 5472.0, 5312.0, 5376.0, 5222.0, 5084.0, 5006.0, 4502.0, 4492.0, 4518.0, 4496.0, 4504.0, 4476.0, 4468.0, 4448.0, 4446.0, 4440.0, 4480.0, 4462.0, 4500.0, 4534.0, 4558.0, 4600.0, 4638.0, 4682.0, 4706.0, 4736.0, 4806.0, 4876.0, 4982.0, 5046.0, 6012.0]
    }
  }
}